Time and date',ECG,PPG
[11:28:02.836 14/08/1994]',0.015,84.969
[11:28:02.838 14/08/1994]',0.015,84.969
[11:28:02.840 14/08/1994]',0.008,83.489
[11:28:02.842 14/08/1994]',0.001,83.489
[11:28:02.844 14/08/1994]',-0.007,83.489
[11:28:02.846 14/08/1994]',-0.014,83.489
[11:28:02.848 14/08/1994]',-0.022,81.698
[11:28:02.850 14/08/1994]',-0.029,81.698
[11:28:02.852 14/08/1994]',-0.029,81.698
[11:28:02.854 14/08/1994]',-0.036,81.698
[11:28:02.856 14/08/1994]',-0.036,79.595
[11:28:02.858 14/08/1994]',-0.029,79.595
[11:28:02.860 14/08/1994]',-0.029,79.595
[11:28:02.862 14/08/1994]',-0.029,79.595
[11:28:02.864 14/08/1994]',-0.029,77.414
[11:28:02.866 14/08/1994]',-0.029,77.414
[11:28:02.868 14/08/1994]',-0.029,77.414
[11:28:02.870 14/08/1994]',-0.036,77.414
[11:28:02.872 14/08/1994]',-0.036,75.234
[11:28:02.874 14/08/1994]',-0.044,75.234
[11:28:02.876 14/08/1994]',-0.044,75.234
[11:28:02.878 14/08/1994]',-0.051,75.234
[11:28:02.880 14/08/1994]',-0.051,72.975
[11:28:02.882 14/08/1994]',-0.051,72.975
[11:28:02.884 14/08/1994]',-0.044,72.975
[11:28:02.886 14/08/1994]',-0.051,72.975
[11:28:02.888 14/08/1994]',-0.051,70.561
[11:28:02.890 14/08/1994]',-0.051,70.561
[11:28:02.892 14/08/1994]',-0.051,70.561
[11:28:02.894 14/08/1994]',-0.044,70.561
[11:28:02.896 14/08/1994]',-0.044,68.224
[11:28:02.898 14/08/1994]',-0.029,68.224
[11:28:02.900 14/08/1994]',-0.029,68.224
[11:28:02.902 14/08/1994]',-0.036,68.224
[11:28:02.904 14/08/1994]',-0.036,65.966
[11:28:02.906 14/08/1994]',-0.036,65.966
[11:28:02.908 14/08/1994]',-0.044,65.966
[11:28:02.910 14/08/1994]',-0.044,65.966
[11:28:02.912 14/08/1994]',-0.029,63.941
[11:28:02.914 14/08/1994]',-0.036,63.941
[11:28:02.916 14/08/1994]',-0.029,63.941
[11:28:02.918 14/08/1994]',-0.029,63.941
[11:28:02.920 14/08/1994]',-0.029,62.305
[11:28:02.922 14/08/1994]',-0.036,62.305
[11:28:02.924 14/08/1994]',-0.044,62.305
[11:28:02.926 14/08/1994]',-0.044,62.305
[11:28:02.928 14/08/1994]',-0.044,61.215
[11:28:02.930 14/08/1994]',-0.044,61.215
[11:28:02.932 14/08/1994]',-0.044,61.215
[11:28:02.934 14/08/1994]',-0.044,61.215
[11:28:02.936 14/08/1994]',-0.036,60.514
[11:28:02.938 14/08/1994]',-0.044,60.514
[11:28:02.940 14/08/1994]',-0.036,60.514
[11:28:02.942 14/08/1994]',-0.036,60.514
[11:28:02.944 14/08/1994]',-0.029,60.358
[11:28:02.946 14/08/1994]',-0.029,60.358
[11:28:02.948 14/08/1994]',-0.029,60.358
[11:28:02.950 14/08/1994]',-0.029,60.358
[11:28:02.952 14/08/1994]',-0.029,60.436
[11:28:02.954 14/08/1994]',-0.022,60.436
[11:28:02.956 14/08/1994]',-0.036,60.436
[11:28:02.958 14/08/1994]',-0.029,60.436
[11:28:02.960 14/08/1994]',-0.029,60.514
[11:28:02.962 14/08/1994]',-0.029,60.514
[11:28:02.964 14/08/1994]',-0.036,60.514
[11:28:02.966 14/08/1994]',-0.044,60.514
[11:28:02.968 14/08/1994]',-0.044,60.592
[11:28:02.970 14/08/1994]',-0.036,60.592
[11:28:02.972 14/08/1994]',-0.044,60.592
[11:28:02.974 14/08/1994]',-0.036,60.592
[11:28:02.976 14/08/1994]',-0.036,60.514
[11:28:02.978 14/08/1994]',-0.036,60.514
[11:28:02.980 14/08/1994]',-0.029,60.514
[11:28:02.982 14/08/1994]',-0.029,60.514
[11:28:02.984 14/08/1994]',-0.029,60.436
[11:28:02.986 14/08/1994]',-0.029,60.436
[11:28:02.988 14/08/1994]',-0.029,60.436
[11:28:02.990 14/08/1994]',-0.029,60.436
[11:28:02.992 14/08/1994]',-0.029,60.28
[11:28:02.994 14/08/1994]',-0.022,60.28
[11:28:02.996 14/08/1994]',-0.014,60.28
[11:28:02.998 14/08/1994]',-0.014,60.28
[11:28:03.000 14/08/1994]',-0.007,60.125
[11:28:03.002 14/08/1994]',-0.014,60.125
[11:28:03.004 14/08/1994]',-0.029,60.125
[11:28:03.006 14/08/1994]',-0.044,60.125
[11:28:03.008 14/08/1994]',-0.074,59.969
[11:28:03.010 14/08/1994]',-0.11,59.969
[11:28:03.012 14/08/1994]',-0.17,59.969
[11:28:03.014 14/08/1994]',-0.221,59.969
[11:28:03.016 14/08/1994]',-0.296,59.813
[11:28:03.018 14/08/1994]',-0.377,59.813
[11:28:03.020 14/08/1994]',-0.466,59.813
[11:28:03.022 14/08/1994]',-0.54,59.813
[11:28:03.024 14/08/1994]',-0.614,59.579
[11:28:03.026 14/08/1994]',-,59.579
[11:28:03.028 14/08/1994]',-,59.579
[11:28:03.030 14/08/1994]',-,59.579
[11:28:03.032 14/08/1994]',-,59.346
[11:28:03.034 14/08/1994]',-,59.346
[11:28:03.036 14/08/1994]',-,59.346
[11:28:03.038 14/08/1994]',-,59.346
[11:28:03.040 14/08/1994]',-,59.034
[11:28:03.042 14/08/1994]',-,59.034
[11:28:03.044 14/08/1994]',-,59.034
[11:28:03.046 14/08/1994]',-,59.034
[11:28:03.048 14/08/1994]',-,58.567
[11:28:03.050 14/08/1994]',-,58.567
[11:28:03.052 14/08/1994]',-,58.567
[11:28:03.054 14/08/1994]',-0.621,58.567
[11:28:03.056 14/08/1994]',-0.54,58.1
[11:28:03.058 14/08/1994]',-0.466,58.1
[11:28:03.060 14/08/1994]',-0.399,58.1
[11:28:03.062 14/08/1994]',-0.332,58.1
[11:28:03.064 14/08/1994]',-0.281,57.632
[11:28:03.066 14/08/1994]',-0.229,57.632
[11:28:03.068 14/08/1994]',-0.199,57.632
[11:28:03.070 14/08/1994]',-0.17,57.632
[11:28:03.072 14/08/1994]',-0.147,57.087
[11:28:03.074 14/08/1994]',-0.118,57.087
[11:28:03.076 14/08/1994]',-0.088,57.087
[11:28:03.078 14/08/1994]',-0.066,57.087
[11:28:03.080 14/08/1994]',-0.044,56.698
[11:28:03.082 14/08/1994]',-0.022,56.698
[11:28:03.084 14/08/1994]',-0.014,56.698
[11:28:03.086 14/08/1994]',0.001,56.698
[11:28:03.088 14/08/1994]',0.023,56.308
[11:28:03.090 14/08/1994]',0.03,56.308
[11:28:03.092 14/08/1994]',0.037,56.308
[11:28:03.094 14/08/1994]',0.045,56.308
[11:28:03.096 14/08/1994]',0.052,55.997
[11:28:03.098 14/08/1994]',0.067,55.997
[11:28:03.100 14/08/1994]',0.075,55.997
[11:28:03.102 14/08/1994]',0.089,55.997
[11:28:03.104 14/08/1994]',0.104,55.607
[11:28:03.106 14/08/1994]',0.119,55.607
[11:28:03.108 14/08/1994]',0.134,55.607
[11:28:03.110 14/08/1994]',0.134,55.607
[11:28:03.112 14/08/1994]',0.134,55.14
[11:28:03.114 14/08/1994]',0.134,55.14
[11:28:03.116 14/08/1994]',0.141,55.14
[11:28:03.118 14/08/1994]',0.141,55.14
[11:28:03.120 14/08/1994]',0.141,54.751
[11:28:03.122 14/08/1994]',0.134,54.751
[11:28:03.124 14/08/1994]',0.134,54.751
[11:28:03.126 14/08/1994]',0.134,54.751
[11:28:03.128 14/08/1994]',0.134,54.283
[11:28:03.130 14/08/1994]',0.134,54.283
[11:28:03.132 14/08/1994]',0.134,54.283
[11:28:03.134 14/08/1994]',0.134,54.283
[11:28:03.136 14/08/1994]',0.141,53.816
[11:28:03.138 14/08/1994]',0.141,53.816
[11:28:03.140 14/08/1994]',0.148,53.816
[11:28:03.142 14/08/1994]',0.156,53.816
[11:28:03.144 14/08/1994]',0.156,53.427
[11:28:03.146 14/08/1994]',0.156,53.427
[11:28:03.148 14/08/1994]',0.148,53.427
[11:28:03.150 14/08/1994]',0.156,53.427
[11:28:03.152 14/08/1994]',0.156,52.96
[11:28:03.154 14/08/1994]',0.163,52.96
[11:28:03.156 14/08/1994]',0.163,52.96
[11:28:03.158 14/08/1994]',0.156,52.96
[11:28:03.160 14/08/1994]',0.156,52.57
[11:28:03.162 14/08/1994]',0.156,52.57
[11:28:03.164 14/08/1994]',0.156,52.57
[11:28:03.166 14/08/1994]',0.156,52.57
[11:28:03.168 14/08/1994]',0.156,52.103
[11:28:03.170 14/08/1994]',0.163,52.103
[11:28:03.172 14/08/1994]',0.171,52.103
[11:28:03.174 14/08/1994]',0.163,52.103
[11:28:03.176 14/08/1994]',0.163,51.791
[11:28:03.178 14/08/1994]',0.156,51.791
[11:28:03.180 14/08/1994]',0.163,51.791
[11:28:03.182 14/08/1994]',0.163,51.791
[11:28:03.184 14/08/1994]',0.163,51.48
[11:28:03.186 14/08/1994]',0.163,51.48
[11:28:03.188 14/08/1994]',0.163,51.48
[11:28:03.190 14/08/1994]',0.178,51.48
[11:28:03.192 14/08/1994]',0.186,51.402
[11:28:03.194 14/08/1994]',0.2,51.402
[11:28:03.196 14/08/1994]',0.2,51.402
[11:28:03.198 14/08/1994]',0.2,51.402
[11:28:03.200 14/08/1994]',0.2,51.947
[11:28:03.202 14/08/1994]',0.2,51.947
[11:28:03.204 14/08/1994]',0.2,51.947
[11:28:03.206 14/08/1994]',0.2,51.947
[11:28:03.208 14/08/1994]',0.208,53.738
[11:28:03.210 14/08/1994]',0.215,53.738
[11:28:03.212 14/08/1994]',0.222,53.738
[11:28:03.214 14/08/1994]',0.23,53.738
[11:28:03.216 14/08/1994]',0.23,57.399
[11:28:03.218 14/08/1994]',0.245,57.399
[11:28:03.220 14/08/1994]',0.252,57.399
[11:28:03.222 14/08/1994]',0.274,57.399
[11:28:03.224 14/08/1994]',0.282,62.928
[11:28:03.226 14/08/1994]',0.282,62.928
[11:28:03.228 14/08/1994]',0.289,62.928
[11:28:03.230 14/08/1994]',0.289,62.928
[11:28:03.232 14/08/1994]',0.297,69.237
[11:28:03.234 14/08/1994]',0.297,69.237
[11:28:03.236 14/08/1994]',0.304,69.237
[11:28:03.238 14/08/1994]',0.319,69.237
[11:28:03.240 14/08/1994]',0.333,74.922
[11:28:03.242 14/08/1994]',0.341,74.922
[11:28:03.244 14/08/1994]',0.341,74.922
[11:28:03.246 14/08/1994]',0.348,74.922
[11:28:03.248 14/08/1994]',0.348,78.972
[11:28:03.250 14/08/1994]',0.348,78.972
[11:28:03.252 14/08/1994]',0.356,78.972
[11:28:03.254 14/08/1994]',0.348,78.972
[11:28:03.256 14/08/1994]',0.356,81.542
[11:28:03.258 14/08/1994]',0.356,81.542
[11:28:03.260 14/08/1994]',0.348,81.542
[11:28:03.262 14/08/1994]',0.348,81.542
[11:28:03.264 14/08/1994]',0.348,82.944
[11:28:03.266 14/08/1994]',0.348,82.944
[11:28:03.268 14/08/1994]',0.356,82.944
[11:28:03.270 14/08/1994]',0.356,82.944
[11:28:03.272 14/08/1994]',0.356,83.645
[11:28:03.274 14/08/1994]',0.348,83.645
[11:28:03.276 14/08/1994]',0.348,83.645
[11:28:03.278 14/08/1994]',0.333,83.645
[11:28:03.280 14/08/1994]',0.311,83.801
[11:28:03.282 14/08/1994]',0.304,83.801
[11:28:03.284 14/08/1994]',0.304,83.801
[11:28:03.286 14/08/1994]',0.297,83.801
[11:28:03.288 14/08/1994]',0.289,83.645
[11:28:03.290 14/08/1994]',0.282,83.645
[11:28:03.292 14/08/1994]',0.267,83.645
[11:28:03.294 14/08/1994]',0.245,83.645
[11:28:03.296 14/08/1994]',0.222,83.333
[11:28:03.298 14/08/1994]',0.2,83.333
[11:28:03.300 14/08/1994]',0.2,83.333
[11:28:03.302 14/08/1994]',0.171,83.333
[11:28:03.304 14/08/1994]',0.163,82.866
[11:28:03.306 14/08/1994]',0.141,82.866
[11:28:03.308 14/08/1994]',0.134,82.866
[11:28:03.310 14/08/1994]',0.119,82.866
[11:28:03.312 14/08/1994]',0.104,82.165
[11:28:03.314 14/08/1994]',0.089,82.165
[11:28:03.316 14/08/1994]',0.082,82.165
[11:28:03.318 14/08/1994]',0.067,82.165
[11:28:03.320 14/08/1994]',0.052,81.231
[11:28:03.322 14/08/1994]',0.052,81.231
[11:28:03.324 14/08/1994]',0.045,81.231
[11:28:03.326 14/08/1994]',0.045,81.231
[11:28:03.328 14/08/1994]',0.045,80.062
[11:28:03.330 14/08/1994]',0.037,80.062
[11:28:03.332 14/08/1994]',0.03,80.062
[11:28:03.334 14/08/1994]',0.023,80.062
[11:28:03.336 14/08/1994]',0.008,78.583
[11:28:03.338 14/08/1994]',0.001,78.583
[11:28:03.340 14/08/1994]',0.001,78.583
[11:28:03.342 14/08/1994]',0.001,78.583
[11:28:03.344 14/08/1994]',-0.007,76.869
[11:28:03.346 14/08/1994]',-0.014,76.869
[11:28:03.348 14/08/1994]',-0.007,76.869
[11:28:03.350 14/08/1994]',0.001,76.869
[11:28:03.352 14/08/1994]',0.001,75.078
[11:28:03.354 14/08/1994]',-0.007,75.078
[11:28:03.356 14/08/1994]',-0.014,75.078
[11:28:03.358 14/08/1994]',-0.014,75.078
[11:28:03.360 14/08/1994]',-0.014,72.975
[11:28:03.362 14/08/1994]',-0.022,72.975
[11:28:03.364 14/08/1994]',-0.022,72.975
[11:28:03.366 14/08/1994]',-0.029,72.975
[11:28:03.368 14/08/1994]',-0.036,70.794
[11:28:03.370 14/08/1994]',-0.036,70.794
[11:28:03.372 14/08/1994]',-0.036,70.794
[11:28:03.374 14/08/1994]',-0.044,70.794
[11:28:03.376 14/08/1994]',-0.029,68.536
[11:28:03.378 14/08/1994]',-0.022,68.536
[11:28:03.380 14/08/1994]',-0.029,68.536
[11:28:03.382 14/08/1994]',-0.029,68.536
[11:28:03.384 14/08/1994]',-0.029,66.199
[11:28:03.386 14/08/1994]',-0.029,66.199
[11:28:03.388 14/08/1994]',-0.036,66.199
[11:28:03.390 14/08/1994]',-0.029,66.199
[11:28:03.392 14/08/1994]',-0.029,64.019
[11:28:03.394 14/08/1994]',-0.029,64.019
[11:28:03.396 14/08/1994]',-0.029,64.019
[11:28:03.398 14/08/1994]',-0.022,64.019
[11:28:03.400 14/08/1994]',-0.022,61.838
[11:28:03.402 14/08/1994]',-0.029,61.838
[11:28:03.404 14/08/1994]',-0.022,61.838
[11:28:03.406 14/08/1994]',-0.014,61.838
[11:28:03.408 14/08/1994]',-0.014,60.047
[11:28:03.410 14/08/1994]',-0.014,60.047
[11:28:03.412 14/08/1994]',-0.014,60.047
[11:28:03.414 14/08/1994]',-0.014,60.047
[11:28:03.416 14/08/1994]',-0.014,58.645
[11:28:03.418 14/08/1994]',-0.022,58.645
[11:28:03.420 14/08/1994]',-0.029,58.645
[11:28:03.422 14/08/1994]',-0.029,58.645
[11:28:03.424 14/08/1994]',-0.022,57.788
[11:28:03.426 14/08/1994]',-0.022,57.788
[11:28:03.428 14/08/1994]',-0.022,57.788
[11:28:03.430 14/08/1994]',-0.022,57.788
[11:28:03.432 14/08/1994]',-0.007,57.555
[11:28:03.434 14/08/1994]',-0.014,57.555
[11:28:03.436 14/08/1994]',-0.014,57.555
[11:28:03.438 14/08/1994]',-0.022,57.555
[11:28:03.440 14/08/1994]',-0.014,57.71
[11:28:03.442 14/08/1994]',-0.022,57.71
[11:28:03.444 14/08/1994]',-0.022,57.71
[11:28:03.446 14/08/1994]',-0.022,57.71
[11:28:03.448 14/08/1994]',-0.029,58.178
[11:28:03.450 14/08/1994]',-0.022,58.178
[11:28:03.452 14/08/1994]',-0.022,58.178
[11:28:03.454 14/08/1994]',-0.022,58.178
[11:28:03.456 14/08/1994]',-0.014,58.567
[11:28:03.458 14/08/1994]',-0.022,58.567
[11:28:03.460 14/08/1994]',-0.014,58.567
[11:28:03.462 14/08/1994]',-0.014,58.567
[11:28:03.464 14/08/1994]',-0.014,58.956
[11:28:03.466 14/08/1994]',-0.014,58.956
[11:28:03.468 14/08/1994]',-0.014,58.956
[11:28:03.470 14/08/1994]',-0.014,58.956
[11:28:03.472 14/08/1994]',-0.014,59.19
[11:28:03.474 14/08/1994]',-0.014,59.19
[11:28:03.476 14/08/1994]',-0.014,59.19
[11:28:03.478 14/08/1994]',-0.014,59.19
[11:28:03.480 14/08/1994]',-0.014,59.346
[11:28:03.482 14/08/1994]',-0.014,59.346
[11:28:03.484 14/08/1994]',-0.007,59.346
[11:28:03.486 14/08/1994]',-0.007,59.346
[11:28:03.488 14/08/1994]',0.001,59.502
[11:28:03.490 14/08/1994]',0.001,59.502
[11:28:03.492 14/08/1994]',0.001,59.502
[11:28:03.494 14/08/1994]',0.001,59.502
[11:28:03.496 14/08/1994]',-0.007,59.579
[11:28:03.498 14/08/1994]',-0.022,59.579
[11:28:03.500 14/08/1994]',-0.051,59.579
[11:28:03.502 14/08/1994]',-0.103,59.579
[11:28:03.504 14/08/1994]',-0.162,59.579
[11:28:03.506 14/08/1994]',-0.229,59.579
[11:28:03.508 14/08/1994]',-0.318,59.579
[11:28:03.510 14/08/1994]',-0.414,59.579
[11:28:03.512 14/08/1994]',-0.51,59.579
[11:28:03.514 14/08/1994]',-0.584,59.579
[11:28:03.516 14/08/1994]',-0.673,59.579
[11:28:03.518 14/08/1994]',-0.668,59.579
[11:28:03.520 14/08/1994]',-0.663,59.502
[11:28:03.522 14/08/1994]',-0.658,59.502
[11:28:03.524 14/08/1994]',-0.653,59.502
[11:28:03.526 14/08/1994]',-0.648,59.502
[11:28:03.528 14/08/1994]',-0.643,59.268
[11:28:03.530 14/08/1994]',-0.638,59.268
[11:28:03.532 14/08/1994]',-0.634,59.268
[11:28:03.534 14/08/1994]',-0.629,59.268
[11:28:03.536 14/08/1994]',-0.624,59.034
[11:28:03.538 14/08/1994]',-0.619,59.034
[11:28:03.540 14/08/1994]',-0.614,59.034
[11:28:03.542 14/08/1994]',-0.609,59.034
[11:28:03.544 14/08/1994]',-0.599,58.801
[11:28:03.546 14/08/1994]',-0.599,58.801
[11:28:03.548 14/08/1994]',-0.503,58.801
[11:28:03.550 14/08/1994]',-0.429,58.801
[11:28:03.552 14/08/1994]',-0.355,58.567
[11:28:03.554 14/08/1994]',-0.288,58.567
[11:28:03.556 14/08/1994]',-0.229,58.567
[11:28:03.558 14/08/1994]',-0.199,58.567
[11:28:03.560 14/08/1994]',-0.17,58.489
[11:28:03.562 14/08/1994]',-0.14,58.489
[11:28:03.564 14/08/1994]',-0.103,58.489
[11:28:03.566 14/08/1994]',-0.081,58.489
[11:28:03.568 14/08/1994]',-0.051,58.489
[11:28:03.570 14/08/1994]',-0.029,58.489
[11:28:03.572 14/08/1994]',-0.007,58.489
[11:28:03.574 14/08/1994]',0.015,58.489
[11:28:03.576 14/08/1994]',0.023,58.489
[11:28:03.578 14/08/1994]',0.045,58.489
[11:28:03.580 14/08/1994]',0.067,58.489
[11:28:03.582 14/08/1994]',0.075,58.489
[11:28:03.584 14/08/1994]',0.082,58.411
[11:28:03.586 14/08/1994]',0.089,58.411
[11:28:03.588 14/08/1994]',0.104,58.411
[11:28:03.590 14/08/1994]',0.119,58.411
[11:28:03.592 14/08/1994]',0.119,58.411
[11:28:03.594 14/08/1994]',0.134,58.411
[11:28:03.596 14/08/1994]',0.141,58.411
[11:28:03.598 14/08/1994]',0.148,58.411
[11:28:03.600 14/08/1994]',0.148,58.333
[11:28:03.602 14/08/1994]',0.156,58.333
[11:28:03.604 14/08/1994]',0.156,58.333
[11:28:03.606 14/08/1994]',0.156,58.333
[11:28:03.608 14/08/1994]',0.163,58.255
[11:28:03.610 14/08/1994]',0.163,58.255
[11:28:03.612 14/08/1994]',0.163,58.255
[11:28:03.614 14/08/1994]',0.163,58.255
[11:28:03.616 14/08/1994]',0.171,58.1
[11:28:03.618 14/08/1994]',0.171,58.1
[11:28:03.620 14/08/1994]',0.163,58.1
[11:28:03.622 14/08/1994]',0.171,58.1
[11:28:03.624 14/08/1994]',0.163,57.944
[11:28:03.626 14/08/1994]',0.171,57.944
[11:28:03.628 14/08/1994]',0.171,57.944
[11:28:03.630 14/08/1994]',0.171,57.944
[11:28:03.632 14/08/1994]',0.171,57.71
[11:28:03.634 14/08/1994]',0.178,57.71
[11:28:03.636 14/08/1994]',0.171,57.71
[11:28:03.638 14/08/1994]',0.171,57.71
[11:28:03.640 14/08/1994]',0.171,57.555
[11:28:03.642 14/08/1994]',0.171,57.555
[11:28:03.644 14/08/1994]',0.163,57.555
[11:28:03.646 14/08/1994]',0.163,57.555
[11:28:03.648 14/08/1994]',0.171,57.321
[11:28:03.650 14/08/1994]',0.171,57.321
[11:28:03.652 14/08/1994]',0.171,57.321
[11:28:03.654 14/08/1994]',0.171,57.321
[11:28:03.656 14/08/1994]',0.171,57.087
[11:28:03.658 14/08/1994]',0.171,57.087
[11:28:03.660 14/08/1994]',0.171,57.087
[11:28:03.662 14/08/1994]',0.178,57.087
[11:28:03.664 14/08/1994]',0.178,56.854
[11:28:03.666 14/08/1994]',0.178,56.854
[11:28:03.668 14/08/1994]',0.178,56.854
[11:28:03.670 14/08/1994]',0.178,56.854
[11:28:03.672 14/08/1994]',0.178,56.776
[11:28:03.674 14/08/1994]',0.186,56.776
[11:28:03.676 14/08/1994]',0.178,56.776
[11:28:03.678 14/08/1994]',0.186,56.776
[11:28:03.680 14/08/1994]',0.186,56.854
[11:28:03.682 14/08/1994]',0.186,56.854
[11:28:03.684 14/08/1994]',0.2,56.854
[11:28:03.686 14/08/1994]',0.2,56.854
[11:28:03.688 14/08/1994]',0.2,57.165
[11:28:03.690 14/08/1994]',0.2,57.165
[11:28:03.692 14/08/1994]',0.208,57.165
[11:28:03.694 14/08/1994]',0.208,57.165
[11:28:03.696 14/08/1994]',0.215,58.333
[11:28:03.698 14/08/1994]',0.222,58.333
[11:28:03.700 14/08/1994]',0.23,58.333
[11:28:03.702 14/08/1994]',0.23,58.333
[11:28:03.704 14/08/1994]',0.23,60.903
[11:28:03.706 14/08/1994]',0.237,60.903
[11:28:03.708 14/08/1994]',0.237,60.903
[11:28:03.710 14/08/1994]',0.252,60.903
[11:28:03.712 14/08/1994]',0.252,65.343
[11:28:03.714 14/08/1994]',0.267,65.343
[11:28:03.716 14/08/1994]',0.274,65.343
[11:28:03.718 14/08/1994]',0.282,65.343
[11:28:03.720 14/08/1994]',0.282,71.184
[11:28:03.722 14/08/1994]',0.289,71.184
[11:28:03.724 14/08/1994]',0.297,71.184
[11:28:03.726 14/08/1994]',0.304,71.184
[11:28:03.728 14/08/1994]',0.311,77.025
[11:28:03.730 14/08/1994]',0.319,77.025
[11:28:03.732 14/08/1994]',0.319,77.025
[11:28:03.734 14/08/1994]',0.333,77.025
[11:28:03.736 14/08/1994]',0.333,81.854
[11:28:03.738 14/08/1994]',0.333,81.854
[11:28:03.740 14/08/1994]',0.341,81.854
[11:28:03.742 14/08/1994]',0.341,81.854
[11:28:03.744 14/08/1994]',0.341,85.047
[11:28:03.746 14/08/1994]',0.341,85.047
[11:28:03.748 14/08/1994]',0.348,85.047
[11:28:03.750 14/08/1994]',0.348,85.047
[11:28:03.752 14/08/1994]',0.356,86.916
[11:28:03.754 14/08/1994]',0.341,86.916
[11:28:03.756 14/08/1994]',0.348,86.916
[11:28:03.758 14/08/1994]',0.348,86.916
[11:28:03.760 14/08/1994]',0.341,87.928
[11:28:03.762 14/08/1994]',0.341,87.928
[11:28:03.764 14/08/1994]',0.333,87.928
[11:28:03.766 14/08/1994]',0.333,87.928
[11:28:03.768 14/08/1994]',0.333,88.24
[11:28:03.770 14/08/1994]',0.319,88.24
[11:28:03.772 14/08/1994]',0.311,88.24
[11:28:03.774 14/08/1994]',0.297,88.24
[11:28:03.776 14/08/1994]',0.297,88.24
[11:28:03.778 14/08/1994]',0.282,88.24
[11:28:03.780 14/08/1994]',0.274,88.24
[11:28:03.782 14/08/1994]',0.252,88.24
[11:28:03.784 14/08/1994]',0.23,88.084
[11:28:03.786 14/08/1994]',0.222,88.084
[11:28:03.788 14/08/1994]',0.208,88.084
[11:28:03.790 14/08/1994]',0.2,88.084
[11:28:03.792 14/08/1994]',0.178,87.695
[11:28:03.794 14/08/1994]',0.163,87.695
[11:28:03.796 14/08/1994]',0.148,87.695
[11:28:03.798 14/08/1994]',0.141,87.695
[11:28:03.800 14/08/1994]',0.134,87.15
[11:28:03.802 14/08/1994]',0.111,87.15
[11:28:03.804 14/08/1994]',0.097,87.15
[11:28:03.806 14/08/1994]',0.089,87.15
[11:28:03.808 14/08/1994]',0.089,86.293
[11:28:03.810 14/08/1994]',0.075,86.293
[11:28:03.812 14/08/1994]',0.067,86.293
[11:28:03.814 14/08/1994]',0.067,86.293
[11:28:03.816 14/08/1994]',0.067,85.202
[11:28:03.818 14/08/1994]',0.052,85.202
[11:28:03.820 14/08/1994]',0.045,85.202
[11:28:03.822 14/08/1994]',0.045,85.202
[11:28:03.824 14/08/1994]',0.037,83.801
[11:28:03.826 14/08/1994]',0.03,83.801
[11:28:03.828 14/08/1994]',0.03,83.801
[11:28:03.830 14/08/1994]',0.023,83.801
[11:28:03.832 14/08/1994]',0.023,82.243
[11:28:03.834 14/08/1994]',0.015,82.243
[11:28:03.836 14/08/1994]',0.008,82.243
[11:28:03.838 14/08/1994]',0.008,82.243
[11:28:03.840 14/08/1994]',0.001,80.452
[11:28:03.842 14/08/1994]',0.001,80.452
[11:28:03.844 14/08/1994]',0.001,80.452
[11:28:03.846 14/08/1994]',0.001,80.452
[11:28:03.848 14/08/1994]',0.001,78.349
[11:28:03.850 14/08/1994]',0.001,78.349
[11:28:03.852 14/08/1994]',0.001,78.349
[11:28:03.854 14/08/1994]',0.001,78.349
[11:28:03.856 14/08/1994]',-0.007,76.168
[11:28:03.858 14/08/1994]',-0.014,76.168
[11:28:03.860 14/08/1994]',-0.014,76.168
[11:28:03.862 14/08/1994]',-0.014,76.168
[11:28:03.864 14/08/1994]',-0.022,73.91
[11:28:03.866 14/08/1994]',-0.022,73.91
[11:28:03.868 14/08/1994]',-0.014,73.91
[11:28:03.870 14/08/1994]',-0.014,73.91
[11:28:03.872 14/08/1994]',-0.022,71.573
[11:28:03.874 14/08/1994]',-0.022,71.573
[11:28:03.876 14/08/1994]',-0.022,71.573
[11:28:03.878 14/08/1994]',-0.014,71.573
[11:28:03.880 14/08/1994]',-0.014,69.315
[11:28:03.882 14/08/1994]',-0.007,69.315
[11:28:03.884 14/08/1994]',-0.007,69.315
[11:28:03.886 14/08/1994]',0.001,69.315
[11:28:03.888 14/08/1994]',-0.007,67.134
[11:28:03.890 14/08/1994]',0.001,67.134
[11:28:03.892 14/08/1994]',-0.007,67.134
[11:28:03.894 14/08/1994]',-0.007,67.134
[11:28:03.896 14/08/1994]',0.001,65.265
[11:28:03.898 14/08/1994]',0.001,65.265
[11:28:03.900 14/08/1994]',0.001,65.265
[11:28:03.902 14/08/1994]',0.001,65.265
[11:28:03.904 14/08/1994]',0.001,63.785
[11:28:03.906 14/08/1994]',0.001,63.785
[11:28:03.908 14/08/1994]',0.001,63.785
[11:28:03.910 14/08/1994]',0.001,63.785
[11:28:03.912 14/08/1994]',0.001,62.773
[11:28:03.914 14/08/1994]',0.001,62.773
[11:28:03.916 14/08/1994]',0.001,62.773
[11:28:03.918 14/08/1994]',0.001,62.773
[11:28:03.920 14/08/1994]',-0.007,62.227
[11:28:03.922 14/08/1994]',0.001,62.227
[11:28:03.924 14/08/1994]',0.001,62.227
[11:28:03.926 14/08/1994]',0.001,62.227
[11:28:03.928 14/08/1994]',0.001,62.072
[11:28:03.930 14/08/1994]',-0.007,62.072
[11:28:03.932 14/08/1994]',0.001,62.072
[11:28:03.934 14/08/1994]',0.001,62.072
[11:28:03.936 14/08/1994]',0.001,62.305
[11:28:03.938 14/08/1994]',0.001,62.305
[11:28:03.940 14/08/1994]',0.001,62.305
[11:28:03.942 14/08/1994]',0.001,62.305
[11:28:03.944 14/08/1994]',0.001,62.461
[11:28:03.946 14/08/1994]',0.001,62.461
[11:28:03.948 14/08/1994]',0.001,62.461
[11:28:03.950 14/08/1994]',0.001,62.461
[11:28:03.952 14/08/1994]',0.001,62.539
[11:28:03.954 14/08/1994]',0.008,62.539
[11:28:03.956 14/08/1994]',0.001,62.539
[11:28:03.958 14/08/1994]',0.001,62.539
[11:28:03.960 14/08/1994]',0.001,62.461
[11:28:03.962 14/08/1994]',-0.007,62.461
[11:28:03.964 14/08/1994]',0.001,62.461
[11:28:03.966 14/08/1994]',0.001,62.461
[11:28:03.968 14/08/1994]',0.001,62.305
[11:28:03.970 14/08/1994]',0.001,62.305
[11:28:03.972 14/08/1994]',-0.007,62.305
[11:28:03.974 14/08/1994]',-0.007,62.305
[11:28:03.976 14/08/1994]',-0.014,62.072
[11:28:03.978 14/08/1994]',-0.014,62.072
[11:28:03.980 14/08/1994]',-0.014,62.072
[11:28:03.982 14/08/1994]',-0.007,62.072
[11:28:03.984 14/08/1994]',0.001,61.838
[11:28:03.986 14/08/1994]',0.001,61.838
[11:28:03.988 14/08/1994]',0.008,61.838
[11:28:03.990 14/08/1994]',0.008,61.838
[11:28:03.992 14/08/1994]',-0.007,61.76
[11:28:03.994 14/08/1994]',-0.036,61.76
[11:28:03.996 14/08/1994]',-0.088,61.76
[11:28:03.998 14/08/1994]',-0.147,61.76
[11:28:04.000 14/08/1994]',-0.214,61.604
[11:28:04.002 14/08/1994]',-0.296,61.604
[11:28:04.004 14/08/1994]',-0.384,61.604
[11:28:04.006 14/08/1994]',-0.473,61.604
[11:28:04.008 14/08/1994]',-0.547,61.526
[11:28:04.010 14/08/1994]',-0.629,61.526
[11:28:04.012 14/08/1994]',-0.632,61.526
[11:28:04.014 14/08/1994]',-0.635,61.526
[11:28:04.016 14/08/1994]',-0.638,61.371
[11:28:04.018 14/08/1994]',-0.642,61.371
[11:28:04.020 14/08/1994]',-0.645,61.371
[11:28:04.022 14/08/1994]',-0.648,61.371
[11:28:04.024 14/08/1994]',-0.651,61.215
[11:28:04.026 14/08/1994]',-0.654,61.215
[11:28:04.028 14/08/1994]',-0.657,61.215
[11:28:04.030 14/08/1994]',-0.66,61.215
[11:28:04.032 14/08/1994]',-0.664,60.981
[11:28:04.034 14/08/1994]',-0.667,60.981
[11:28:04.036 14/08/1994]',-0.67,60.981
[11:28:04.038 14/08/1994]',-0.673,60.981
[11:28:04.040 14/08/1994]',-0.569,60.67
[11:28:04.042 14/08/1994]',-0.48,60.67
[11:28:04.044 14/08/1994]',-0.421,60.67
[11:28:04.046 14/08/1994]',-0.355,60.67
[11:28:04.048 14/08/1994]',-0.288,60.28
[11:28:04.050 14/08/1994]',-0.229,60.28
[11:28:04.052 14/08/1994]',-0.199,60.28
[11:28:04.054 14/08/1994]',-0.155,60.28
[11:28:04.056 14/08/1994]',-0.118,59.891
[11:28:04.058 14/08/1994]',-0.096,59.891
[11:28:04.060 14/08/1994]',-0.074,59.891
[11:28:04.062 14/08/1994]',-0.051,59.891
[11:28:04.064 14/08/1994]',-0.022,59.579
[11:28:04.066 14/08/1994]',-0.007,59.579
[11:28:04.068 14/08/1994]',0.015,59.579
[11:28:04.070 14/08/1994]',0.023,59.579
[11:28:04.072 14/08/1994]',0.037,59.346
[11:28:04.074 14/08/1994]',0.045,59.346
[11:28:04.076 14/08/1994]',0.067,59.346
[11:28:04.078 14/08/1994]',0.075,59.346
[11:28:04.080 14/08/1994]',0.082,58.956
[11:28:04.082 14/08/1994]',0.097,58.956
[11:28:04.084 14/08/1994]',0.104,58.956
[11:28:04.086 14/08/1994]',0.111,58.956
[11:28:04.088 14/08/1994]',0.111,58.645
[11:28:04.090 14/08/1994]',0.119,58.645
[11:28:04.092 14/08/1994]',0.134,58.645
[11:28:04.094 14/08/1994]',0.134,58.645
[11:28:04.096 14/08/1994]',0.148,58.255
[11:28:04.098 14/08/1994]',0.134,58.255
[11:28:04.100 14/08/1994]',0.148,58.255
[11:28:04.102 14/08/1994]',0.148,58.255
[11:28:04.104 14/08/1994]',0.156,57.866
[11:28:04.106 14/08/1994]',0.156,57.866
[11:28:04.108 14/08/1994]',0.156,57.866
[11:28:04.110 14/08/1994]',0.156,57.866
[11:28:04.112 14/08/1994]',0.156,57.399
[11:28:04.114 14/08/1994]',0.163,57.399
[11:28:04.116 14/08/1994]',0.163,57.399
[11:28:04.118 14/08/1994]',0.163,57.399
[11:28:04.120 14/08/1994]',0.163,57.009
[11:28:04.122 14/08/1994]',0.163,57.009
[11:28:04.124 14/08/1994]',0.156,57.009
[11:28:04.126 14/08/1994]',0.163,57.009
[11:28:04.128 14/08/1994]',0.163,56.542
[11:28:04.130 14/08/1994]',0.163,56.542
[11:28:04.132 14/08/1994]',0.163,56.542
[11:28:04.134 14/08/1994]',0.163,56.542
[11:28:04.136 14/08/1994]',0.163,56.153
[11:28:04.138 14/08/1994]',0.163,56.153
[11:28:04.140 14/08/1994]',0.163,56.153
[11:28:04.142 14/08/1994]',0.163,56.153
[11:28:04.144 14/08/1994]',0.163,55.685
[11:28:04.146 14/08/1994]',0.163,55.685
[11:28:04.148 14/08/1994]',0.163,55.685
[11:28:04.150 14/08/1994]',0.171,55.685
[11:28:04.152 14/08/1994]',0.171,55.296
[11:28:04.154 14/08/1994]',0.171,55.296
[11:28:04.156 14/08/1994]',0.178,55.296
[11:28:04.158 14/08/1994]',0.178,55.296
[11:28:04.160 14/08/1994]',0.178,54.907
[11:28:04.162 14/08/1994]',0.178,54.907
[11:28:04.164 14/08/1994]',0.178,54.907
[11:28:04.166 14/08/1994]',0.178,54.907
[11:28:04.168 14/08/1994]',0.186,54.595
[11:28:04.170 14/08/1994]',0.186,54.595
[11:28:04.172 14/08/1994]',0.186,54.595
[11:28:04.174 14/08/1994]',0.186,54.595
[11:28:04.176 14/08/1994]',0.186,54.751
[11:28:04.178 14/08/1994]',0.186,54.751
[11:28:04.180 14/08/1994]',0.186,54.751
[11:28:04.182 14/08/1994]',0.2,54.751
[11:28:04.184 14/08/1994]',0.208,55.53
[11:28:04.186 14/08/1994]',0.208,55.53
[11:28:04.188 14/08/1994]',0.2,55.53
[11:28:04.190 14/08/1994]',0.208,55.53
[11:28:04.192 14/08/1994]',0.208,57.944
[11:28:04.194 14/08/1994]',0.215,57.944
[11:28:04.196 14/08/1994]',0.222,57.944
[11:28:04.198 14/08/1994]',0.23,57.944
[11:28:04.200 14/08/1994]',0.237,62.383
[11:28:04.202 14/08/1994]',0.245,62.383
[11:28:04.204 14/08/1994]',0.245,62.383
[11:28:04.206 14/08/1994]',0.252,62.383
[11:28:04.208 14/08/1994]',0.267,68.769
[11:28:04.210 14/08/1994]',0.267,68.769
[11:28:04.212 14/08/1994]',0.274,68.769
[11:28:04.214 14/08/1994]',0.282,68.769
[11:28:04.216 14/08/1994]',0.282,75.701
[11:28:04.218 14/08/1994]',0.289,75.701
[11:28:04.220 14/08/1994]',0.304,75.701
[11:28:04.222 14/08/1994]',0.304,75.701
[11:28:04.224 14/08/1994]',0.311,81.464
[11:28:04.226 14/08/1994]',0.311,81.464
[11:28:04.228 14/08/1994]',0.319,81.464
[11:28:04.230 14/08/1994]',0.319,81.464
[11:28:04.232 14/08/1994]',0.333,85.358
[11:28:04.234 14/08/1994]',0.333,85.358
[11:28:04.236 14/08/1994]',0.333,85.358
[11:28:04.238 14/08/1994]',0.341,85.358
[11:28:04.240 14/08/1994]',0.341,87.539
[11:28:04.242 14/08/1994]',0.341,87.539
[11:28:04.244 14/08/1994]',0.341,87.539
[11:28:04.246 14/08/1994]',0.341,87.539
[11:28:04.248 14/08/1994]',0.341,88.707
[11:28:04.250 14/08/1994]',0.341,88.707
[11:28:04.252 14/08/1994]',0.341,88.707
[11:28:04.254 14/08/1994]',0.341,88.707
[11:28:04.256 14/08/1994]',0.333,89.252
[11:28:04.258 14/08/1994]',0.333,89.252
[11:28:04.260 14/08/1994]',0.333,89.252
[11:28:04.262 14/08/1994]',0.319,89.252
[11:28:04.264 14/08/1994]',0.311,89.486
[11:28:04.266 14/08/1994]',0.304,89.486
[11:28:04.268 14/08/1994]',0.297,89.486
[11:28:04.270 14/08/1994]',0.282,89.486
[11:28:04.272 14/08/1994]',0.274,89.486
[11:28:04.274 14/08/1994]',0.252,89.486
[11:28:04.276 14/08/1994]',0.237,89.486
[11:28:04.278 14/08/1994]',0.222,89.486
[11:28:04.280 14/08/1994]',0.208,89.408
[11:28:04.282 14/08/1994]',0.186,89.408
[11:28:04.284 14/08/1994]',0.163,89.408
[11:28:04.286 14/08/1994]',0.148,89.408
[11:28:04.288 14/08/1994]',0.141,89.097
[11:28:04.290 14/08/1994]',0.119,89.097
[11:28:04.292 14/08/1994]',0.104,89.097
[11:28:04.294 14/08/1994]',0.097,89.097
[11:28:04.296 14/08/1994]',0.089,88.551
[11:28:04.298 14/08/1994]',0.082,88.551
[11:28:04.300 14/08/1994]',0.075,88.551
[11:28:04.302 14/08/1994]',0.067,88.551
[11:28:04.304 14/08/1994]',0.067,87.695
[11:28:04.306 14/08/1994]',0.052,87.695
[11:28:04.308 14/08/1994]',0.037,87.695
[11:28:04.310 14/08/1994]',0.037,87.695
[11:28:04.312 14/08/1994]',0.037,86.604
[11:28:04.314 14/08/1994]',0.03,86.604
[11:28:04.316 14/08/1994]',0.03,86.604
[11:28:04.318 14/08/1994]',0.023,86.604
[11:28:04.320 14/08/1994]',0.023,85.125
[11:28:04.322 14/08/1994]',0.015,85.125
[11:28:04.324 14/08/1994]',0.008,85.125
[11:28:04.326 14/08/1994]',0.001,85.125
[11:28:04.328 14/08/1994]',0.001,83.411
[11:28:04.330 14/08/1994]',-0.014,83.411
[11:28:04.332 14/08/1994]',-0.014,83.411
[11:28:04.334 14/08/1994]',-0.014,83.411
[11:28:04.336 14/08/1994]',-0.029,81.542
[11:28:04.338 14/08/1994]',-0.022,81.542
[11:28:04.340 14/08/1994]',-0.022,81.542
[11:28:04.342 14/08/1994]',-0.022,81.542
[11:28:04.344 14/08/1994]',-0.022,79.439
[11:28:04.346 14/08/1994]',-0.022,79.439
[11:28:04.348 14/08/1994]',-0.022,79.439
[11:28:04.350 14/08/1994]',-0.029,79.439
[11:28:04.352 14/08/1994]',-0.029,77.259
[11:28:04.354 14/08/1994]',-0.029,77.259
[11:28:04.356 14/08/1994]',-0.029,77.259
[11:28:04.358 14/08/1994]',-0.029,77.259
[11:28:04.360 14/08/1994]',-0.029,74.922
[11:28:04.362 14/08/1994]',-0.029,74.922
[11:28:04.364 14/08/1994]',-0.022,74.922
[11:28:04.366 14/08/1994]',-0.022,74.922
[11:28:04.368 14/08/1994]',-0.014,72.508
[11:28:04.370 14/08/1994]',-0.014,72.508
[11:28:04.372 14/08/1994]',-0.014,72.508
[11:28:04.374 14/08/1994]',-0.022,72.508
[11:28:04.376 14/08/1994]',-0.022,70.171
[11:28:04.378 14/08/1994]',-0.014,70.171
[11:28:04.380 14/08/1994]',-0.022,70.171
[11:28:04.382 14/08/1994]',-0.022,70.171
[11:28:04.384 14/08/1994]',-0.022,67.757
[11:28:04.386 14/08/1994]',-0.022,67.757
[11:28:04.388 14/08/1994]',-0.014,67.757
[11:28:04.390 14/08/1994]',-0.014,67.757
[11:28:04.392 14/08/1994]',-0.014,65.654
[11:28:04.394 14/08/1994]',-0.007,65.654
[11:28:04.396 14/08/1994]',-0.007,65.654
[11:28:04.398 14/08/1994]',0.001,65.654
[11:28:04.400 14/08/1994]',0.001,63.785
[11:28:04.402 14/08/1994]',-0.007,63.785
[11:28:04.404 14/08/1994]',-0.007,63.785
[11:28:04.406 14/08/1994]',0.001,63.785
[11:28:04.408 14/08/1994]',-0.007,62.539
[11:28:04.410 14/08/1994]',-0.007,62.539
[11:28:04.412 14/08/1994]',-0.007,62.539
[11:28:04.414 14/08/1994]',-0.014,62.539
[11:28:04.416 14/08/1994]',-0.007,61.76
[11:28:04.418 14/08/1994]',-0.014,61.76
[11:28:04.420 14/08/1994]',-0.007,61.76
[11:28:04.422 14/08/1994]',-0.007,61.76
[11:28:04.424 14/08/1994]',-0.007,61.371
[11:28:04.426 14/08/1994]',0.001,61.371
[11:28:04.428 14/08/1994]',0.001,61.371
[11:28:04.430 14/08/1994]',0.001,61.371
[11:28:04.432 14/08/1994]',0.001,61.293
[11:28:04.434 14/08/1994]',0.001,61.293
[11:28:04.436 14/08/1994]',0.001,61.293
[11:28:04.438 14/08/1994]',0.001,61.293
[11:28:04.440 14/08/1994]',-0.007,61.137
[11:28:04.442 14/08/1994]',0.001,61.137
[11:28:04.444 14/08/1994]',0.001,61.137
[11:28:04.446 14/08/1994]',0.001,61.137
[11:28:04.448 14/08/1994]',0.001,60.981
[11:28:04.450 14/08/1994]',0.001,60.981
[11:28:04.452 14/08/1994]',0.001,60.981
[11:28:04.454 14/08/1994]',0.008,60.981
[11:28:04.456 14/08/1994]',0.008,60.748
[11:28:04.458 14/08/1994]',0.001,60.748
[11:28:04.460 14/08/1994]',0.001,60.748
[11:28:04.462 14/08/1994]',0.001,60.748
[11:28:04.464 14/08/1994]',-0.007,60.514
[11:28:04.466 14/08/1994]',-0.007,60.514
[11:28:04.468 14/08/1994]',-0.007,60.514
[11:28:04.470 14/08/1994]',-0.007,60.514
[11:28:04.472 14/08/1994]',0.001,60.202
[11:28:04.474 14/08/1994]',0.001,60.202
[11:28:04.476 14/08/1994]',0.001,60.202
[11:28:04.478 14/08/1994]',0.008,60.202
[11:28:04.480 14/08/1994]',0.015,59.969
[11:28:04.482 14/08/1994]',0.008,59.969
[11:28:04.484 14/08/1994]',-0.007,59.969
[11:28:04.486 14/08/1994]',-0.022,59.969
[11:28:04.488 14/08/1994]',-0.051,59.813
[11:28:04.490 14/08/1994]',-0.103,59.813
[11:28:04.492 14/08/1994]',-0.17,59.813
[11:28:04.494 14/08/1994]',-0.229,59.813
[11:28:04.496 14/08/1994]',-0.318,59.579
[11:28:04.498 14/08/1994]',-0.414,59.579
[11:28:04.500 14/08/1994]',-0.473,59.579
[11:28:04.502 14/08/1994]',-0.562,59.579
[11:28:04.504 14/08/1994]',-0.665,59.424
[11:28:04.506 14/08/1994]',-0.672,59.424
[11:28:04.508 14/08/1994]',-0.679,59.424
[11:28:04.510 14/08/1994]',-0.686,59.424
[11:28:04.512 14/08/1994]',-0.692,59.268
[11:28:04.514 14/08/1994]',-0.699,59.268
[11:28:04.516 14/08/1994]',-0.706,59.268
[11:28:04.518 14/08/1994]',-0.713,59.268
[11:28:04.520 14/08/1994]',-0.72,59.034
[11:28:04.522 14/08/1994]',-0.727,59.034
[11:28:04.524 14/08/1994]',-0.734,59.034
[11:28:04.526 14/08/1994]',-0.74,59.034
[11:28:04.528 14/08/1994]',-0.747,58.645
[11:28:04.530 14/08/1994]',-0.754,58.645
[11:28:04.532 14/08/1994]',-0.569,58.645
[11:28:04.534 14/08/1994]',-0.48,58.645
[11:28:04.536 14/08/1994]',-0.407,58.178
[11:28:04.538 14/08/1994]',-0.347,58.178
[11:28:04.540 14/08/1994]',-0.288,58.178
[11:28:04.542 14/08/1994]',-0.229,58.178
[11:28:04.544 14/08/1994]',-0.199,57.788
[11:28:04.546 14/08/1994]',-0.155,57.788
[11:28:04.548 14/08/1994]',-0.133,57.788
[11:28:04.550 14/08/1994]',-0.103,57.788
[11:28:04.552 14/08/1994]',-0.081,57.321
[11:28:04.554 14/08/1994]',-0.066,57.321
[11:28:04.556 14/08/1994]',-0.036,57.321
[11:28:04.558 14/08/1994]',-0.014,57.321
[11:28:04.560 14/08/1994]',0.001,56.854
[11:28:04.562 14/08/1994]',0.015,56.854
[11:28:04.564 14/08/1994]',0.037,56.854
[11:28:04.566 14/08/1994]',0.052,56.854
[11:28:04.568 14/08/1994]',0.067,56.464
[11:28:04.570 14/08/1994]',0.075,56.464
[11:28:04.572 14/08/1994]',0.075,56.464
[11:28:04.574 14/08/1994]',0.089,56.464
[11:28:04.576 14/08/1994]',0.089,56.153
[11:28:04.578 14/08/1994]',0.089,56.153
[11:28:04.580 14/08/1994]',0.089,56.153
[11:28:04.582 14/08/1994]',0.104,56.153
[11:28:04.584 14/08/1994]',0.111,55.763
[11:28:04.586 14/08/1994]',0.111,55.763
[11:28:04.588 14/08/1994]',0.111,55.763
[11:28:04.590 14/08/1994]',0.119,55.763
[11:28:04.592 14/08/1994]',0.134,55.374
[11:28:04.594 14/08/1994]',0.148,55.374
[11:28:04.596 14/08/1994]',0.163,55.374
[11:28:04.598 14/08/1994]',0.178,55.374
[11:28:04.600 14/08/1994]',0.186,54.907
[11:28:04.602 14/08/1994]',0.178,54.907
[11:28:04.604 14/08/1994]',0.171,54.907
[11:28:04.606 14/08/1994]',0.171,54.907
[11:28:04.608 14/08/1994]',0.163,54.517
[11:28:04.610 14/08/1994]',0.171,54.517
[11:28:04.612 14/08/1994]',0.178,54.517
[11:28:04.614 14/08/1994]',0.178,54.517
[11:28:04.616 14/08/1994]',0.178,54.05
[11:28:04.618 14/08/1994]',0.171,54.05
[11:28:04.620 14/08/1994]',0.178,54.05
[11:28:04.622 14/08/1994]',0.171,54.05
[11:28:04.624 14/08/1994]',0.163,53.505
[11:28:04.626 14/08/1994]',0.163,53.505
[11:28:04.628 14/08/1994]',0.163,53.505
[11:28:04.630 14/08/1994]',0.163,53.505
[11:28:04.632 14/08/1994]',0.163,53.037
[11:28:04.634 14/08/1994]',0.163,53.037
[11:28:04.636 14/08/1994]',0.156,53.037
[11:28:04.638 14/08/1994]',0.163,53.037
[11:28:04.640 14/08/1994]',0.171,52.57
[11:28:04.642 14/08/1994]',0.171,52.57
[11:28:04.644 14/08/1994]',0.171,52.57
[11:28:04.646 14/08/1994]',0.163,52.57
[11:28:04.648 14/08/1994]',0.148,52.103
[11:28:04.650 14/08/1994]',0.148,52.103
[11:28:04.652 14/08/1994]',0.148,52.103
[11:28:04.654 14/08/1994]',0.156,52.103
[11:28:04.656 14/08/1994]',0.156,51.791
[11:28:04.658 14/08/1994]',0.163,51.791
[11:28:04.660 14/08/1994]',0.156,51.791
[11:28:04.662 14/08/1994]',0.156,51.791
[11:28:04.664 14/08/1994]',0.163,51.636
[11:28:04.666 14/08/1994]',0.186,51.636
[11:28:04.668 14/08/1994]',0.215,51.636
[11:28:04.670 14/08/1994]',0.222,51.636
[11:28:04.672 14/08/1994]',0.222,51.791
[11:28:04.674 14/08/1994]',0.222,51.791
[11:28:04.676 14/08/1994]',0.222,51.791
[11:28:04.678 14/08/1994]',0.23,51.791
[11:28:04.680 14/08/1994]',0.23,52.96
[11:28:04.682 14/08/1994]',0.23,52.96
[11:28:04.684 14/08/1994]',0.237,52.96
[11:28:04.686 14/08/1994]',0.245,52.96
[11:28:04.688 14/08/1994]',0.252,55.685
[11:28:04.690 14/08/1994]',0.267,55.685
[11:28:04.692 14/08/1994]',0.267,55.685
[11:28:04.694 14/08/1994]',0.267,55.685
[11:28:04.696 14/08/1994]',0.267,60.514
[11:28:04.698 14/08/1994]',0.267,60.514
[11:28:04.700 14/08/1994]',0.274,60.514
[11:28:04.702 14/08/1994]',0.282,60.514
[11:28:04.704 14/08/1994]',0.289,66.978
[11:28:04.706 14/08/1994]',0.297,66.978
[11:28:04.708 14/08/1994]',0.297,66.978
[11:28:04.710 14/08/1994]',0.311,66.978
[11:28:04.712 14/08/1994]',0.319,73.364
[11:28:04.714 14/08/1994]',0.333,73.364
[11:28:04.716 14/08/1994]',0.341,73.364
[11:28:04.718 14/08/1994]',0.348,73.364
[11:28:04.720 14/08/1994]',0.348,78.505
[11:28:04.722 14/08/1994]',0.348,78.505
[11:28:04.724 14/08/1994]',0.356,78.505
[11:28:04.726 14/08/1994]',0.356,78.505
[11:28:04.728 14/08/1994]',0.356,81.776
[11:28:04.730 14/08/1994]',0.356,81.776
[11:28:04.732 14/08/1994]',0.356,81.776
[11:28:04.734 14/08/1994]',0.363,81.776
[11:28:04.736 14/08/1994]',0.363,83.723
[11:28:04.738 14/08/1994]',0.37,83.723
[11:28:04.740 14/08/1994]',0.378,83.723
[11:28:04.742 14/08/1994]',0.385,83.723
[11:28:04.744 14/08/1994]',0.378,84.735
[11:28:04.746 14/08/1994]',0.378,84.735
[11:28:04.748 14/08/1994]',0.37,84.735
[11:28:04.750 14/08/1994]',0.363,84.735
[11:28:04.752 14/08/1994]',0.356,85.202
[11:28:04.754 14/08/1994]',0.356,85.202
[11:28:04.756 14/08/1994]',0.348,85.202
[11:28:04.758 14/08/1994]',0.341,85.202
[11:28:04.760 14/08/1994]',0.333,85.358
[11:28:04.762 14/08/1994]',0.319,85.358
[11:28:04.764 14/08/1994]',0.311,85.358
[11:28:04.766 14/08/1994]',0.304,85.358
[11:28:04.768 14/08/1994]',0.297,85.358
[11:28:04.770 14/08/1994]',0.274,85.358
[11:28:04.772 14/08/1994]',0.245,85.358
[11:28:04.774 14/08/1994]',0.222,85.358
[11:28:04.776 14/08/1994]',0.208,85.125
[11:28:04.778 14/08/1994]',0.2,85.125
[11:28:04.780 14/08/1994]',0.178,85.125
[11:28:04.782 14/08/1994]',0.163,85.125
[11:28:04.784 14/08/1994]',0.148,84.657
[11:28:04.786 14/08/1994]',0.141,84.657
[11:28:04.788 14/08/1994]',0.134,84.657
[11:28:04.790 14/08/1994]',0.119,84.657
[11:28:04.792 14/08/1994]',0.111,83.879
[11:28:04.794 14/08/1994]',0.104,83.879
[11:28:04.796 14/08/1994]',0.097,83.879
[11:28:04.798 14/08/1994]',0.089,83.879
[11:28:04.800 14/08/1994]',0.082,82.866
[11:28:04.802 14/08/1994]',0.075,82.866
[11:28:04.804 14/08/1994]',0.067,82.866
[11:28:04.806 14/08/1994]',0.052,82.866
[11:28:04.808 14/08/1994]',0.045,81.542
[11:28:04.810 14/08/1994]',0.037,81.542
[11:28:04.812 14/08/1994]',0.037,81.542
[11:28:04.814 14/08/1994]',0.03,81.542
[11:28:04.816 14/08/1994]',0.023,79.907
[11:28:04.818 14/08/1994]',0.015,79.907
[11:28:04.820 14/08/1994]',0.008,79.907
[11:28:04.822 14/08/1994]',0.008,79.907
[11:28:04.824 14/08/1994]',0.008,77.96
[11:28:04.826 14/08/1994]',0.001,77.96
[11:28:04.828 14/08/1994]',0.001,77.96
[11:28:04.830 14/08/1994]',0.001,77.96
[11:28:04.832 14/08/1994]',-0.007,75.935
[11:28:04.834 14/08/1994]',0.001,75.935
[11:28:04.836 14/08/1994]',0.001,75.935
[11:28:04.838 14/08/1994]',-0.007,75.935
[11:28:04.840 14/08/1994]',-0.014,73.754
[11:28:04.842 14/08/1994]',-0.014,73.754
[11:28:04.844 14/08/1994]',-0.014,73.754
[11:28:04.846 14/08/1994]',-0.014,73.754
[11:28:04.848 14/08/1994]',-0.014,71.573
[11:28:04.850 14/08/1994]',-0.007,71.573
[11:28:04.852 14/08/1994]',0.001,71.573
[11:28:04.854 14/08/1994]',0.001,71.573
[11:28:04.856 14/08/1994]',0.001,69.159
[11:28:04.858 14/08/1994]',-0.007,69.159
[11:28:04.860 14/08/1994]',-0.014,69.159
[11:28:04.862 14/08/1994]',-0.022,69.159
[11:28:04.864 14/08/1994]',-0.014,66.822
[11:28:04.866 14/08/1994]',-0.022,66.822
[11:28:04.868 14/08/1994]',-0.014,66.822
[11:28:04.870 14/08/1994]',-0.014,66.822
[11:28:04.872 14/08/1994]',-0.007,64.408
[11:28:04.874 14/08/1994]',0.001,64.408
[11:28:04.876 14/08/1994]',0.001,64.408
[11:28:04.878 14/08/1994]',0.001,64.408
[11:28:04.880 14/08/1994]',0.015,62.15
[11:28:04.882 14/08/1994]',0.008,62.15
[11:28:04.884 14/08/1994]',0.008,62.15
[11:28:04.886 14/08/1994]',0.001,62.15
[11:28:04.888 14/08/1994]',0.001,60.28
[11:28:04.890 14/08/1994]',0.001,60.28
[11:28:04.892 14/08/1994]',0.001,60.28
[11:28:04.894 14/08/1994]',0.001,60.28
[11:28:04.896 14/08/1994]',0.001,58.879
[11:28:04.898 14/08/1994]',0.001,58.879
[11:28:04.900 14/08/1994]',0.001,58.879
[11:28:04.902 14/08/1994]',0.001,58.879
[11:28:04.904 14/08/1994]',0.001,57.944
[11:28:04.906 14/08/1994]',-0.007,57.944
[11:28:04.908 14/08/1994]',0.001,57.944
[11:28:04.910 14/08/1994]',0.001,57.944
[11:28:04.912 14/08/1994]',0.008,57.632
[11:28:04.914 14/08/1994]',0.008,57.632
[11:28:04.916 14/08/1994]',0.008,57.632
[11:28:04.918 14/08/1994]',0.008,57.632
[11:28:04.920 14/08/1994]',0.001,57.632
[11:28:04.922 14/08/1994]',0.001,57.632
[11:28:04.924 14/08/1994]',-0.007,57.632
[11:28:04.926 14/08/1994]',0.001,57.632
[11:28:04.928 14/08/1994]',0.001,57.944
[11:28:04.930 14/08/1994]',0.008,57.944
[11:28:04.932 14/08/1994]',0.008,57.944
[11:28:04.934 14/08/1994]',0.008,57.944
[11:28:04.936 14/08/1994]',0.015,58.178
[11:28:04.938 14/08/1994]',0.008,58.178
[11:28:04.940 14/08/1994]',0.008,58.178
[11:28:04.942 14/08/1994]',0.001,58.178
[11:28:04.944 14/08/1994]',0.001,58.411
[11:28:04.946 14/08/1994]',0.008,58.411
[11:28:04.948 14/08/1994]',0.001,58.411
[11:28:04.950 14/08/1994]',0.008,58.411
[11:28:04.952 14/08/1994]',0.008,58.489
[11:28:04.954 14/08/1994]',0.008,58.489
[11:28:04.956 14/08/1994]',0.008,58.489
[11:28:04.958 14/08/1994]',0.008,58.489
[11:28:04.960 14/08/1994]',0.015,58.489
[11:28:04.962 14/08/1994]',0.008,58.489
[11:28:04.964 14/08/1994]',0.015,58.489
[11:28:04.966 14/08/1994]',0.023,58.489
[11:28:04.968 14/08/1994]',0.03,58.411
[11:28:04.970 14/08/1994]',0.03,58.411
[11:28:04.972 14/08/1994]',0.023,58.411
[11:28:04.974 14/08/1994]',0.023,58.411
[11:28:04.976 14/08/1994]',-0.007,58.411
[11:28:04.978 14/08/1994]',-0.029,58.411
[11:28:04.980 14/08/1994]',-0.081,58.411
[11:28:04.982 14/08/1994]',-0.147,58.411
[11:28:04.984 14/08/1994]',-0.214,58.255
[11:28:04.986 14/08/1994]',-0.303,58.255
[11:28:04.988 14/08/1994]',-0.407,58.255
[11:28:04.990 14/08/1994]',-0.51,58.255
[11:28:04.992 14/08/1994]',-0.577,58.1
[11:28:04.994 14/08/1994]',-0.665,58.1
[11:28:04.996 14/08/1994]',-,58.1
[11:28:04.998 14/08/1994]',-,58.1
[11:28:05.000 14/08/1994]',-,57.944
[11:28:05.002 14/08/1994]',-,57.944
[11:28:05.004 14/08/1994]',-,57.944
[11:28:05.006 14/08/1994]',-,57.944
[11:28:05.008 14/08/1994]',-,57.632
[11:28:05.010 14/08/1994]',-,57.632
[11:28:05.012 14/08/1994]',-,57.632
[11:28:05.014 14/08/1994]',-,57.632
[11:28:05.016 14/08/1994]',-,57.399
[11:28:05.018 14/08/1994]',-,57.399
[11:28:05.020 14/08/1994]',-,57.399
[11:28:05.022 14/08/1994]',-0.68,57.399
[11:28:05.024 14/08/1994]',-0.562,57.087
[11:28:05.026 14/08/1994]',-0.473,57.087
[11:28:05.028 14/08/1994]',-0.399,57.087
[11:28:05.030 14/08/1994]',-0.318,57.087
[11:28:05.032 14/08/1994]',-0.251,56.854
[11:28:05.034 14/08/1994]',-0.207,56.854
[11:28:05.036 14/08/1994]',-0.177,56.854
[11:28:05.038 14/08/1994]',-0.147,56.854
[11:28:05.040 14/08/1994]',-0.11,56.542
[11:28:05.042 14/08/1994]',-0.088,56.542
[11:28:05.044 14/08/1994]',-0.051,56.542
[11:28:05.046 14/08/1994]',-0.029,56.542
[11:28:05.048 14/08/1994]',-0.007,56.386
[11:28:05.050 14/08/1994]',0.015,56.386
[11:28:05.052 14/08/1994]',0.03,56.386
[11:28:05.054 14/08/1994]',0.045,56.386
[11:28:05.056 14/08/1994]',0.067,56.231
[11:28:05.058 14/08/1994]',0.075,56.231
[11:28:05.060 14/08/1994]',0.089,56.231
[11:28:05.062 14/08/1994]',0.104,56.231
[11:28:05.064 14/08/1994]',0.111,56.075
[11:28:05.066 14/08/1994]',0.134,56.075
[11:28:05.068 14/08/1994]',0.141,56.075
[11:28:05.070 14/08/1994]',0.148,56.075
[11:28:05.072 14/08/1994]',0.148,55.997
[11:28:05.074 14/08/1994]',0.156,55.997
[11:28:05.076 14/08/1994]',0.163,55.997
[11:28:05.078 14/08/1994]',0.171,55.997
[11:28:05.080 14/08/1994]',0.178,55.763
[11:28:05.082 14/08/1994]',0.171,55.763
[11:28:05.084 14/08/1994]',0.178,55.763
[11:28:05.086 14/08/1994]',0.178,55.763
[11:28:05.088 14/08/1994]',0.186,55.607
[11:28:05.090 14/08/1994]',0.186,55.607
[11:28:05.092 14/08/1994]',0.186,55.607
[11:28:05.094 14/08/1994]',0.186,55.607
[11:28:05.096 14/08/1994]',0.186,55.452
[11:28:05.098 14/08/1994]',0.186,55.452
[11:28:05.100 14/08/1994]',0.2,55.452
[11:28:05.102 14/08/1994]',0.186,55.452
[11:28:05.104 14/08/1994]',0.186,55.296
[11:28:05.106 14/08/1994]',0.2,55.296
[11:28:05.108 14/08/1994]',0.186,55.296
[11:28:05.110 14/08/1994]',0.186,55.296
[11:28:05.112 14/08/1994]',0.186,55.14
[11:28:05.114 14/08/1994]',0.186,55.14
[11:28:05.116 14/08/1994]',0.186,55.14
[11:28:05.118 14/08/1994]',0.186,55.14
[11:28:05.120 14/08/1994]',0.178,55.14
[11:28:05.122 14/08/1994]',0.186,55.14
[11:28:05.124 14/08/1994]',0.186,55.14
[11:28:05.126 14/08/1994]',0.178,55.14
[11:28:05.128 14/08/1994]',0.186,55.218
[11:28:05.130 14/08/1994]',0.186,55.218
[11:28:05.132 14/08/1994]',0.186,55.218
[11:28:05.134 14/08/1994]',0.2,55.218
[11:28:05.136 14/08/1994]',0.186,55.296
[11:28:05.138 14/08/1994]',0.186,55.296
[11:28:05.140 14/08/1994]',0.186,55.296
[11:28:05.142 14/08/1994]',0.186,55.296
[11:28:05.144 14/08/1994]',0.186,55.374
[11:28:05.146 14/08/1994]',0.186,55.374
[11:28:05.148 14/08/1994]',0.186,55.374
[11:28:05.150 14/08/1994]',0.186,55.374
[11:28:05.152 14/08/1994]',0.2,55.452
[11:28:05.154 14/08/1994]',0.186,55.452
[11:28:05.156 14/08/1994]',0.2,55.452
[11:28:05.158 14/08/1994]',0.2,55.452
[11:28:05.160 14/08/1994]',0.2,55.685
[11:28:05.162 14/08/1994]',0.2,55.685
[11:28:05.164 14/08/1994]',0.2,55.685
[11:28:05.166 14/08/1994]',0.208,55.685
[11:28:05.168 14/08/1994]',0.215,56.308
[11:28:05.170 14/08/1994]',0.215,56.308
[11:28:05.172 14/08/1994]',0.215,56.308
[11:28:05.174 14/08/1994]',0.222,56.308
[11:28:05.176 14/08/1994]',0.222,57.944
[11:28:05.178 14/08/1994]',0.23,57.944
[11:28:05.180 14/08/1994]',0.23,57.944
[11:28:05.182 14/08/1994]',0.237,57.944
[11:28:05.184 14/08/1994]',0.245,61.215
[11:28:05.186 14/08/1994]',0.245,61.215
[11:28:05.188 14/08/1994]',0.252,61.215
[11:28:05.190 14/08/1994]',0.267,61.215
[11:28:05.192 14/08/1994]',0.274,66.277
[11:28:05.194 14/08/1994]',0.274,66.277
[11:28:05.196 14/08/1994]',0.282,66.277
[11:28:05.198 14/08/1994]',0.289,66.277
[11:28:05.200 14/08/1994]',0.297,72.352
[11:28:05.202 14/08/1994]',0.297,72.352
[11:28:05.204 14/08/1994]',0.304,72.352
[11:28:05.206 14/08/1994]',0.311,72.352
[11:28:05.208 14/08/1994]',0.319,78.037
[11:28:05.210 14/08/1994]',0.333,78.037
[11:28:05.212 14/08/1994]',0.333,78.037
[11:28:05.214 14/08/1994]',0.341,78.037
[11:28:05.216 14/08/1994]',0.341,82.632
[11:28:05.218 14/08/1994]',0.348,82.632
[11:28:05.220 14/08/1994]',0.356,82.632
[11:28:05.222 14/08/1994]',0.348,82.632
[11:28:05.224 14/08/1994]',0.356,85.67
[11:28:05.226 14/08/1994]',0.356,85.67
[11:28:05.228 14/08/1994]',0.356,85.67
[11:28:05.230 14/08/1994]',0.356,85.67
[11:28:05.232 14/08/1994]',0.356,87.461
[11:28:05.234 14/08/1994]',0.356,87.461
[11:28:05.236 14/08/1994]',0.356,87.461
[11:28:05.238 14/08/1994]',0.348,87.461
[11:28:05.240 14/08/1994]',0.341,88.474
[11:28:05.242 14/08/1994]',0.341,88.474
[11:28:05.244 14/08/1994]',0.333,88.474
[11:28:05.246 14/08/1994]',0.333,88.474
[11:28:05.248 14/08/1994]',0.319,88.863
[11:28:05.250 14/08/1994]',0.311,88.863
[11:28:05.252 14/08/1994]',0.304,88.863
[11:28:05.254 14/08/1994]',0.289,88.863
[11:28:05.256 14/08/1994]',0.282,88.863
[11:28:05.258 14/08/1994]',0.267,88.863
[11:28:05.260 14/08/1994]',0.252,88.863
[11:28:05.262 14/08/1994]',0.237,88.863
[11:28:05.264 14/08/1994]',0.222,88.629
[11:28:05.266 14/08/1994]',0.208,88.629
[11:28:05.268 14/08/1994]',0.186,88.629
[11:28:05.270 14/08/1994]',0.178,88.629
[11:28:05.272 14/08/1994]',0.163,88.24
[11:28:05.274 14/08/1994]',0.148,88.24
[11:28:05.276 14/08/1994]',0.134,88.24
[11:28:05.278 14/08/1994]',0.119,88.24
[11:28:05.280 14/08/1994]',0.111,87.461
[11:28:05.282 14/08/1994]',0.104,87.461
[11:28:05.284 14/08/1994]',0.097,87.461
[11:28:05.286 14/08/1994]',0.089,87.461
[11:28:05.288 14/08/1994]',0.082,86.526
[11:28:05.290 14/08/1994]',0.075,86.526
[11:28:05.292 14/08/1994]',0.067,86.526
[11:28:05.294 14/08/1994]',0.067,86.526
[11:28:05.296 14/08/1994]',0.052,85.28
[11:28:05.298 14/08/1994]',0.052,85.28
[11:28:05.300 14/08/1994]',0.045,85.28
[11:28:05.302 14/08/1994]',0.037,85.28
[11:28:05.304 14/08/1994]',0.037,83.801
[11:28:05.306 14/08/1994]',0.03,83.801
[11:28:05.308 14/08/1994]',0.023,83.801
[11:28:05.310 14/08/1994]',0.015,83.801
[11:28:05.312 14/08/1994]',0.015,82.009
[11:28:05.314 14/08/1994]',0.008,82.009
[11:28:05.316 14/08/1994]',0.015,82.009
[11:28:05.318 14/08/1994]',0.008,82.009
[11:28:05.320 14/08/1994]',0.008,79.984
[11:28:05.322 14/08/1994]',0.008,79.984
[11:28:05.324 14/08/1994]',0.001,79.984
[11:28:05.326 14/08/1994]',0.008,79.984
[11:28:05.328 14/08/1994]',0.001,77.804
[11:28:05.330 14/08/1994]',0.001,77.804
[11:28:05.332 14/08/1994]',-0.007,77.804
[11:28:05.334 14/08/1994]',-0.007,77.804
[11:28:05.336 14/08/1994]',-0.007,75.467
[11:28:05.338 14/08/1994]',-0.014,75.467
[11:28:05.340 14/08/1994]',-0.014,75.467
[11:28:05.342 14/08/1994]',-0.022,75.467
[11:28:05.344 14/08/1994]',-0.014,73.209
[11:28:05.346 14/08/1994]',-0.022,73.209
[11:28:05.348 14/08/1994]',-0.014,73.209
[11:28:05.350 14/08/1994]',-0.014,73.209
[11:28:05.352 14/08/1994]',-0.014,70.872
[11:28:05.354 14/08/1994]',-0.007,70.872
[11:28:05.356 14/08/1994]',-0.014,70.872
[11:28:05.358 14/08/1994]',-0.007,70.872
[11:28:05.360 14/08/1994]',-0.007,68.614
[11:28:05.362 14/08/1994]',0.001,68.614
[11:28:05.364 14/08/1994]',0.001,68.614
[11:28:05.366 14/08/1994]',0.001,68.614
[11:28:05.368 14/08/1994]',0.001,66.433
[11:28:05.370 14/08/1994]',0.001,66.433
[11:28:05.372 14/08/1994]',0.001,66.433
[11:28:05.374 14/08/1994]',0.001,66.433
[11:28:05.376 14/08/1994]',0.001,64.564
[11:28:05.378 14/08/1994]',0.001,64.564
[11:28:05.380 14/08/1994]',0.001,64.564
[11:28:05.382 14/08/1994]',0.008,64.564
[11:28:05.384 14/08/1994]',0.008,63.084
[11:28:05.386 14/08/1994]',0.008,63.084
[11:28:05.388 14/08/1994]',0.001,63.084
[11:28:05.390 14/08/1994]',0.008,63.084
[11:28:05.392 14/08/1994]',0.008,62.15
[11:28:05.394 14/08/1994]',0.008,62.15
[11:28:05.396 14/08/1994]',0.008,62.15
[11:28:05.398 14/08/1994]',0.008,62.15
[11:28:05.400 14/08/1994]',0.008,61.76
[11:28:05.402 14/08/1994]',0.008,61.76
[11:28:05.404 14/08/1994]',0.008,61.76
[11:28:05.406 14/08/1994]',0.008,61.76
[11:28:05.408 14/08/1994]',0.008,61.76
[11:28:05.410 14/08/1994]',0.008,61.76
[11:28:05.412 14/08/1994]',0.008,61.76
[11:28:05.414 14/08/1994]',0.015,61.76
[11:28:05.416 14/08/1994]',0.015,61.916
[11:28:05.418 14/08/1994]',0.008,61.916
[11:28:05.420 14/08/1994]',0.015,61.916
[11:28:05.422 14/08/1994]',0.008,61.916
[11:28:05.424 14/08/1994]',0.008,62.227
[11:28:05.426 14/08/1994]',0.008,62.227
[11:28:05.428 14/08/1994]',0.015,62.227
[11:28:05.430 14/08/1994]',0.015,62.227
[11:28:05.432 14/08/1994]',0.015,62.383
[11:28:05.434 14/08/1994]',0.015,62.383
[11:28:05.436 14/08/1994]',0.015,62.383
[11:28:05.438 14/08/1994]',0.015,62.383
[11:28:05.440 14/08/1994]',0.008,62.383
[11:28:05.442 14/08/1994]',0.015,62.383
[11:28:05.444 14/08/1994]',0.015,62.383
[11:28:05.446 14/08/1994]',0.015,62.383
[11:28:05.448 14/08/1994]',0.023,62.305
[11:28:05.450 14/08/1994]',0.015,62.305
[11:28:05.452 14/08/1994]',0.023,62.305
[11:28:05.454 14/08/1994]',0.015,62.305
[11:28:05.456 14/08/1994]',0.023,62.15
[11:28:05.458 14/08/1994]',0.023,62.15
[11:28:05.460 14/08/1994]',0.03,62.15
[11:28:05.462 14/08/1994]',0.03,62.15
[11:28:05.464 14/08/1994]',0.03,62.072
[11:28:05.466 14/08/1994]',0.03,62.072
[11:28:05.468 14/08/1994]',0.008,62.072
[11:28:05.470 14/08/1994]',-0.014,62.072
[11:28:05.472 14/08/1994]',-0.044,61.916
[11:28:05.474 14/08/1994]',-0.103,61.916
[11:28:05.476 14/08/1994]',-0.177,61.916
[11:28:05.478 14/08/1994]',-0.251,61.916
[11:28:05.480 14/08/1994]',-0.347,61.838
[11:28:05.482 14/08/1994]',-0.443,61.838
[11:28:05.484 14/08/1994]',-0.532,61.838
[11:28:05.486 14/08/1994]',-0.621,61.838
[11:28:05.488 14/08/1994]',-,61.76
[11:28:05.490 14/08/1994]',-,61.76
[11:28:05.492 14/08/1994]',-,61.76
[11:28:05.494 14/08/1994]',-,61.76
[11:28:05.496 14/08/1994]',-,61.604
[11:28:05.498 14/08/1994]',-,61.604
[11:28:05.500 14/08/1994]',-,61.604
[11:28:05.502 14/08/1994]',-,61.604
[11:28:05.504 14/08/1994]',-,61.449
[11:28:05.506 14/08/1994]',-,61.449
[11:28:05.508 14/08/1994]',-,61.449
[11:28:05.510 14/08/1994]',-,61.449
[11:28:05.512 14/08/1994]',-,61.137
[11:28:05.514 14/08/1994]',-,61.137
[11:28:05.516 14/08/1994]',-0.629,61.137
[11:28:05.518 14/08/1994]',-0.532,61.137
[11:28:05.520 14/08/1994]',-0.443,60.826
[11:28:05.522 14/08/1994]',-0.369,60.826
[11:28:05.524 14/08/1994]',-0.296,60.826
[11:28:05.526 14/08/1994]',-0.229,60.826
[11:28:05.528 14/08/1994]',-0.185,60.436
[11:28:05.530 14/08/1994]',-0.147,60.436
[11:28:05.532 14/08/1994]',-0.11,60.436
[11:28:05.534 14/08/1994]',-0.081,60.436
[11:28:05.536 14/08/1994]',-0.044,60.047
[11:28:05.538 14/08/1994]',-0.022,60.047
[11:28:05.540 14/08/1994]',0.008,60.047
[11:28:05.542 14/08/1994]',0.023,60.047
[11:28:05.544 14/08/1994]',0.045,59.657
[11:28:05.546 14/08/1994]',0.067,59.657
[11:28:05.548 14/08/1994]',0.089,59.657
[11:28:05.550 14/08/1994]',0.104,59.657
[11:28:05.552 14/08/1994]',0.111,59.268
[11:28:05.554 14/08/1994]',0.134,59.268
[11:28:05.556 14/08/1994]',0.141,59.268
[11:28:05.558 14/08/1994]',0.148,59.268
[11:28:05.560 14/08/1994]',0.163,58.801
[11:28:05.562 14/08/1994]',0.171,58.801
[11:28:05.564 14/08/1994]',0.178,58.801
[11:28:05.566 14/08/1994]',0.186,58.801
[11:28:05.568 14/08/1994]',0.186,58.411
[11:28:05.570 14/08/1994]',0.2,58.411
[11:28:05.572 14/08/1994]',0.2,58.411
[11:28:05.574 14/08/1994]',0.2,58.411
[11:28:05.576 14/08/1994]',0.2,57.944
[11:28:05.578 14/08/1994]',0.2,57.944
[11:28:05.580 14/08/1994]',0.208,57.944
[11:28:05.582 14/08/1994]',0.208,57.944
[11:28:05.584 14/08/1994]',0.208,57.555
[11:28:05.586 14/08/1994]',0.208,57.555
[11:28:05.588 14/08/1994]',0.208,57.555
[11:28:05.590 14/08/1994]',0.208,57.555
[11:28:05.592 14/08/1994]',0.208,57.087
[11:28:05.594 14/08/1994]',0.208,57.087
[11:28:05.596 14/08/1994]',0.208,57.087
[11:28:05.598 14/08/1994]',0.2,57.087
[11:28:05.600 14/08/1994]',0.208,56.542
[11:28:05.602 14/08/1994]',0.208,56.542
[11:28:05.604 14/08/1994]',0.2,56.542
[11:28:05.606 14/08/1994]',0.208,56.542
[11:28:05.608 14/08/1994]',0.2,56.075
[11:28:05.610 14/08/1994]',0.186,56.075
[11:28:05.612 14/08/1994]',0.2,56.075
[11:28:05.614 14/08/1994]',0.2,56.075
[11:28:05.616 14/08/1994]',0.208,55.607
[11:28:05.618 14/08/1994]',0.215,55.607
[11:28:05.620 14/08/1994]',0.215,55.607
[11:28:05.622 14/08/1994]',0.215,55.607
[11:28:05.624 14/08/1994]',0.215,55.14
[11:28:05.626 14/08/1994]',0.215,55.14
[11:28:05.628 14/08/1994]',0.208,55.14
[11:28:05.630 14/08/1994]',0.208,55.14
[11:28:05.632 14/08/1994]',0.208,54.751
[11:28:05.634 14/08/1994]',0.208,54.751
[11:28:05.636 14/08/1994]',0.208,54.751
[11:28:05.638 14/08/1994]',0.215,54.751
[11:28:05.640 14/08/1994]',0.208,54.361
[11:28:05.642 14/08/1994]',0.215,54.361
[11:28:05.644 14/08/1994]',0.215,54.361
[11:28:05.646 14/08/1994]',0.222,54.361
[11:28:05.648 14/08/1994]',0.222,54.283
[11:28:05.650 14/08/1994]',0.222,54.283
[11:28:05.652 14/08/1994]',0.23,54.283
[11:28:05.654 14/08/1994]',0.23,54.283
[11:28:05.656 14/08/1994]',0.23,54.595
[11:28:05.658 14/08/1994]',0.23,54.595
[11:28:05.660 14/08/1994]',0.23,54.595
[11:28:05.662 14/08/1994]',0.23,54.595
[11:28:05.664 14/08/1994]',0.237,55.997
[11:28:05.666 14/08/1994]',0.245,55.997
[11:28:05.668 14/08/1994]',0.245,55.997
[11:28:05.670 14/08/1994]',0.252,55.997
[11:28:05.672 14/08/1994]',0.252,59.034
[11:28:05.674 14/08/1994]',0.267,59.034
[11:28:05.676 14/08/1994]',0.267,59.034
[11:28:05.678 14/08/1994]',0.274,59.034
[11:28:05.680 14/08/1994]',0.282,64.33
[11:28:05.682 14/08/1994]',0.289,64.33
[11:28:05.684 14/08/1994]',0.297,64.33
[11:28:05.686 14/08/1994]',0.297,64.33
[11:28:05.688 14/08/1994]',0.311,71.028
[11:28:05.690 14/08/1994]',0.311,71.028
[11:28:05.692 14/08/1994]',0.319,71.028
[11:28:05.694 14/08/1994]',0.319,71.028
[11:28:05.696 14/08/1994]',0.333,77.648
[11:28:05.698 14/08/1994]',0.341,77.648
[11:28:05.700 14/08/1994]',0.341,77.648
[11:28:05.702 14/08/1994]',0.348,77.648
[11:28:05.704 14/08/1994]',0.356,82.71
[11:28:05.706 14/08/1994]',0.363,82.71
[11:28:05.708 14/08/1994]',0.363,82.71
[11:28:05.710 14/08/1994]',0.37,82.71
[11:28:05.712 14/08/1994]',0.37,85.981
[11:28:05.714 14/08/1994]',0.37,85.981
[11:28:05.716 14/08/1994]',0.378,85.981
[11:28:05.718 14/08/1994]',0.378,85.981
[11:28:05.720 14/08/1994]',0.378,87.695
[11:28:05.722 14/08/1994]',0.378,87.695
[11:28:05.724 14/08/1994]',0.378,87.695
[11:28:05.726 14/08/1994]',0.378,87.695
[11:28:05.728 14/08/1994]',0.378,88.629
[11:28:05.730 14/08/1994]',0.378,88.629
[11:28:05.732 14/08/1994]',0.363,88.629
[11:28:05.734 14/08/1994]',0.363,88.629
[11:28:05.736 14/08/1994]',0.356,89.097
[11:28:05.738 14/08/1994]',0.356,89.097
[11:28:05.740 14/08/1994]',0.348,89.097
[11:28:05.742 14/08/1994]',0.333,89.097
[11:28:05.744 14/08/1994]',0.333,89.252
[11:28:05.746 14/08/1994]',0.319,89.252
[11:28:05.748 14/08/1994]',0.311,89.252
[11:28:05.750 14/08/1994]',0.297,89.252
[11:28:05.752 14/08/1994]',0.282,89.252
[11:28:05.754 14/08/1994]',0.274,89.252
[11:28:05.756 14/08/1994]',0.252,89.252
[11:28:05.758 14/08/1994]',0.23,89.252
[11:28:05.760 14/08/1994]',0.215,89.097
[11:28:05.762 14/08/1994]',0.208,89.097
[11:28:05.764 14/08/1994]',0.186,89.097
[11:28:05.766 14/08/1994]',0.171,89.097
[11:28:05.768 14/08/1994]',0.163,88.785
[11:28:05.770 14/08/1994]',0.148,88.785
[11:28:05.772 14/08/1994]',0.134,88.785
[11:28:05.774 14/08/1994]',0.111,88.785
[11:28:05.776 14/08/1994]',0.104,88.162
[11:28:05.778 14/08/1994]',0.097,88.162
[11:28:05.780 14/08/1994]',0.089,88.162
[11:28:05.782 14/08/1994]',0.082,88.162
[11:28:05.784 14/08/1994]',0.067,87.15
[11:28:05.786 14/08/1994]',0.052,87.15
[11:28:05.788 14/08/1994]',0.045,87.15
[11:28:05.790 14/08/1994]',0.045,87.15
[11:28:05.792 14/08/1994]',0.037,85.903
[11:28:05.794 14/08/1994]',0.03,85.903
[11:28:05.796 14/08/1994]',0.03,85.903
[11:28:05.798 14/08/1994]',0.03,85.903
[11:28:05.800 14/08/1994]',0.015,84.346
[11:28:05.802 14/08/1994]',0.015,84.346
[11:28:05.804 14/08/1994]',0.001,84.346
[11:28:05.806 14/08/1994]',0.001,84.346
[11:28:05.808 14/08/1994]',0.015,82.632
[11:28:05.810 14/08/1994]',0.008,82.632
[11:28:05.812 14/08/1994]',0.001,82.632
[11:28:05.814 14/08/1994]',0.001,82.632
[11:28:05.816 14/08/1994]',-0.007,80.685
[11:28:05.818 14/08/1994]',-0.007,80.685
[11:28:05.820 14/08/1994]',-0.014,80.685
[11:28:05.822 14/08/1994]',-0.014,80.685
[11:28:05.824 14/08/1994]',-0.014,78.505
[11:28:05.826 14/08/1994]',-0.007,78.505
[11:28:05.828 14/08/1994]',-0.014,78.505
[11:28:05.830 14/08/1994]',-0.014,78.505
[11:28:05.832 14/08/1994]',-0.022,76.324
[11:28:05.834 14/08/1994]',-0.029,76.324
[11:28:05.836 14/08/1994]',-0.029,76.324
[11:28:05.838 14/08/1994]',-0.029,76.324
[11:28:05.840 14/08/1994]',-0.029,74.065
[11:28:05.842 14/08/1994]',-0.029,74.065
[11:28:05.844 14/08/1994]',-0.029,74.065
[11:28:05.846 14/08/1994]',-0.022,74.065
[11:28:05.848 14/08/1994]',-0.029,71.807
[11:28:05.850 14/08/1994]',-0.029,71.807
[11:28:05.852 14/08/1994]',-0.022,71.807
[11:28:05.854 14/08/1994]',-0.022,71.807
[11:28:05.856 14/08/1994]',-0.014,69.626
[11:28:05.858 14/08/1994]',-0.014,69.626
[11:28:05.860 14/08/1994]',-0.007,69.626
[11:28:05.862 14/08/1994]',-0.007,69.626
[11:28:05.864 14/08/1994]',-0.007,67.601
[11:28:05.866 14/08/1994]',-0.007,67.601
[11:28:05.868 14/08/1994]',-0.007,67.601
[11:28:05.870 14/08/1994]',-0.007,67.601
[11:28:05.872 14/08/1994]',-0.007,65.732
[11:28:05.874 14/08/1994]',-0.014,65.732
[11:28:05.876 14/08/1994]',-0.007,65.732
[11:28:05.878 14/08/1994]',-0.007,65.732
[11:28:05.880 14/08/1994]',-0.014,64.408
[11:28:05.882 14/08/1994]',-0.007,64.408
[11:28:05.884 14/08/1994]',-0.014,64.408
[11:28:05.886 14/08/1994]',-0.007,64.408
[11:28:05.888 14/08/1994]',-0.007,63.551
[11:28:05.890 14/08/1994]',-0.014,63.551
[11:28:05.892 14/08/1994]',-0.007,63.551
[11:28:05.894 14/08/1994]',-0.007,63.551
[11:28:05.896 14/08/1994]',-0.007,63.24
[11:28:05.898 14/08/1994]',-0.007,63.24
[11:28:05.900 14/08/1994]',-0.007,63.24
[11:28:05.902 14/08/1994]',-0.007,63.24
[11:28:05.904 14/08/1994]',-0.007,63.318
[11:28:05.906 14/08/1994]',-0.007,63.318
[11:28:05.908 14/08/1994]',-0.014,63.318
[11:28:05.910 14/08/1994]',-0.014,63.318
[11:28:05.912 14/08/1994]',-0.007,63.474
[11:28:05.914 14/08/1994]',-0.007,63.474
[11:28:05.916 14/08/1994]',-0.007,63.474
[11:28:05.918 14/08/1994]',-0.014,63.474
[11:28:05.920 14/08/1994]',-0.007,63.551
[11:28:05.922 14/08/1994]',-0.007,63.551
[11:28:05.924 14/08/1994]',-0.014,63.551
[11:28:05.926 14/08/1994]',-0.007,63.551
[11:28:05.928 14/08/1994]',-0.007,63.551
[11:28:05.930 14/08/1994]',-0.007,63.551
[11:28:05.932 14/08/1994]',-0.007,63.551
[11:28:05.934 14/08/1994]',-0.007,63.551
[11:28:05.936 14/08/1994]',-0.007,63.474
[11:28:05.938 14/08/1994]',-0.007,63.474
[11:28:05.940 14/08/1994]',-0.007,63.474
[11:28:05.942 14/08/1994]',-0.007,63.474
[11:28:05.944 14/08/1994]',-0.007,63.474
[11:28:05.946 14/08/1994]',-0.007,63.474
[11:28:05.948 14/08/1994]',-0.007,63.474
[11:28:05.950 14/08/1994]',-0.007,63.474
[11:28:05.952 14/08/1994]',0.001,63.396
[11:28:05.954 14/08/1994]',0.001,63.396
[11:28:05.956 14/08/1994]',0.001,63.396
[11:28:05.958 14/08/1994]',0.001,63.396
[11:28:05.960 14/08/1994]',-0.007,63.396
[11:28:05.962 14/08/1994]',-0.029,63.396
[11:28:05.964 14/08/1994]',-0.066,63.396
[11:28:05.966 14/08/1994]',-0.103,63.396
[11:28:05.968 14/08/1994]',-0.17,63.318
[11:28:05.970 14/08/1994]',-0.229,63.318
[11:28:05.972 14/08/1994]',-0.318,63.318
[11:28:05.974 14/08/1994]',-0.407,63.318
[11:28:05.976 14/08/1994]',-0.48,63.24
[11:28:05.978 14/08/1994]',-0.562,63.24
[11:28:05.980 14/08/1994]',-0.643,63.24
[11:28:05.982 14/08/1994]',-,63.24
[11:28:05.984 14/08/1994]',-,63.006
[11:28:05.986 14/08/1994]',-,63.006
[11:28:05.988 14/08/1994]',-,63.006
[11:28:05.990 14/08/1994]',-,63.006
[11:28:05.992 14/08/1994]',-,62.773
[11:28:05.994 14/08/1994]',-,62.773
[11:28:05.996 14/08/1994]',-,62.773
[11:28:05.998 14/08/1994]',-,62.773
[11:28:06.000 14/08/1994]',-,62.539
[11:28:06.002 14/08/1994]',-,62.539
[11:28:06.004 14/08/1994]',-,62.539
[11:28:06.006 14/08/1994]',-,62.539
[11:28:06.008 14/08/1994]',-0.68,62.15
[11:28:06.010 14/08/1994]',-0.577,62.15
[11:28:06.012 14/08/1994]',-0.495,62.15
[11:28:06.014 14/08/1994]',-0.421,62.15
[11:28:06.016 14/08/1994]',-0.347,61.838
[11:28:06.018 14/08/1994]',-0.288,61.838
[11:28:06.020 14/08/1994]',-0.229,61.838
[11:28:06.022 14/08/1994]',-0.199,61.838
[11:28:06.024 14/08/1994]',-0.162,61.371
[11:28:06.026 14/08/1994]',-0.133,61.371
[11:28:06.028 14/08/1994]',-0.096,61.371
[11:28:06.030 14/08/1994]',-0.074,61.371
[11:28:06.032 14/08/1994]',-0.036,60.981
[11:28:06.034 14/08/1994]',-0.022,60.981
[11:28:06.036 14/08/1994]',0.001,60.981
[11:28:06.038 14/08/1994]',0.015,60.981
[11:28:06.040 14/08/1994]',0.03,60.748
[11:28:06.042 14/08/1994]',0.045,60.748
[11:28:06.044 14/08/1994]',0.067,60.748
[11:28:06.046 14/08/1994]',0.075,60.748
[11:28:06.048 14/08/1994]',0.082,60.436
[11:28:06.050 14/08/1994]',0.097,60.436
[11:28:06.052 14/08/1994]',0.104,60.436
[11:28:06.054 14/08/1994]',0.111,60.436
[11:28:06.056 14/08/1994]',0.119,60.125
[11:28:06.058 14/08/1994]',0.134,60.125
[11:28:06.060 14/08/1994]',0.141,60.125
[11:28:06.062 14/08/1994]',0.141,60.125
[11:28:06.064 14/08/1994]',0.148,59.657
[11:28:06.066 14/08/1994]',0.148,59.657
[11:28:06.068 14/08/1994]',0.163,59.657
[11:28:06.070 14/08/1994]',0.156,59.657
[11:28:06.072 14/08/1994]',0.163,59.19
[11:28:06.074 14/08/1994]',0.171,59.19
[11:28:06.076 14/08/1994]',0.163,59.19
[11:28:06.078 14/08/1994]',0.171,59.19
[11:28:06.080 14/08/1994]',0.171,58.723
[11:28:06.082 14/08/1994]',0.163,58.723
[11:28:06.084 14/08/1994]',0.171,58.723
[11:28:06.086 14/08/1994]',0.178,58.723
[11:28:06.088 14/08/1994]',0.171,58.178
[11:28:06.090 14/08/1994]',0.163,58.178
[11:28:06.092 14/08/1994]',0.171,58.178
[11:28:06.094 14/08/1994]',0.171,58.178
[11:28:06.096 14/08/1994]',0.171,57.632
[11:28:06.098 14/08/1994]',0.171,57.632
[11:28:06.100 14/08/1994]',0.171,57.632
[11:28:06.102 14/08/1994]',0.171,57.632
[11:28:06.104 14/08/1994]',0.171,57.009
[11:28:06.106 14/08/1994]',0.178,57.009
[11:28:06.108 14/08/1994]',0.178,57.009
[11:28:06.110 14/08/1994]',0.171,57.009
[11:28:06.112 14/08/1994]',0.171,56.464
[11:28:06.114 14/08/1994]',0.178,56.464
[11:28:06.116 14/08/1994]',0.178,56.464
[11:28:06.118 14/08/1994]',0.186,56.464
[11:28:06.120 14/08/1994]',0.186,55.997
[11:28:06.122 14/08/1994]',0.178,55.997
[11:28:06.124 14/08/1994]',0.178,55.997
[11:28:06.126 14/08/1994]',0.186,55.997
[11:28:06.128 14/08/1994]',0.2,55.53
[11:28:06.130 14/08/1994]',0.186,55.53
[11:28:06.132 14/08/1994]',0.186,55.53
[11:28:06.134 14/08/1994]',0.186,55.53
[11:28:06.136 14/08/1994]',0.186,55.14
[11:28:06.138 14/08/1994]',0.186,55.14
[11:28:06.140 14/08/1994]',0.186,55.14
[11:28:06.142 14/08/1994]',0.2,55.14
[11:28:06.144 14/08/1994]',0.2,55.14
[11:28:06.146 14/08/1994]',0.2,55.14
[11:28:06.148 14/08/1994]',0.208,55.14
[11:28:06.150 14/08/1994]',0.208,55.14
[11:28:06.152 14/08/1994]',0.208,55.685
[11:28:06.154 14/08/1994]',0.215,55.685
[11:28:06.156 14/08/1994]',0.215,55.685
[11:28:06.158 14/08/1994]',0.215,55.685
[11:28:06.160 14/08/1994]',0.222,57.632
[11:28:06.162 14/08/1994]',0.23,57.632
[11:28:06.164 14/08/1994]',0.23,57.632
[11:28:06.166 14/08/1994]',0.23,57.632
[11:28:06.168 14/08/1994]',0.237,61.682
[11:28:06.170 14/08/1994]',0.245,61.682
[11:28:06.172 14/08/1994]',0.245,61.682
[11:28:06.174 14/08/1994]',0.252,61.682
[11:28:06.176 14/08/1994]',0.267,67.913
[11:28:06.178 14/08/1994]',0.267,67.913
[11:28:06.180 14/08/1994]',0.282,67.913
[11:28:06.182 14/08/1994]',0.289,67.913
[11:28:06.184 14/08/1994]',0.297,74.922
[11:28:06.186 14/08/1994]',0.297,74.922
[11:28:06.188 14/08/1994]',0.304,74.922
[11:28:06.190 14/08/1994]',0.311,74.922
[11:28:06.192 14/08/1994]',0.304,81.153
[11:28:06.194 14/08/1994]',0.311,81.153
[11:28:06.196 14/08/1994]',0.319,81.153
[11:28:06.198 14/08/1994]',0.319,81.153
[11:28:06.200 14/08/1994]',0.333,85.514
[11:28:06.202 14/08/1994]',0.333,85.514
[11:28:06.204 14/08/1994]',0.333,85.514
[11:28:06.206 14/08/1994]',0.341,85.514
[11:28:06.208 14/08/1994]',0.341,88.084
[11:28:06.210 14/08/1994]',0.341,88.084
[11:28:06.212 14/08/1994]',0.348,88.084
[11:28:06.214 14/08/1994]',0.348,88.084
[11:28:06.216 14/08/1994]',0.348,89.486
[11:28:06.218 14/08/1994]',0.348,89.486
[11:28:06.220 14/08/1994]',0.348,89.486
[11:28:06.222 14/08/1994]',0.348,89.486
[11:28:06.224 14/08/1994]',0.341,90.187
[11:28:06.226 14/08/1994]',0.341,90.187
[11:28:06.228 14/08/1994]',0.333,90.187
[11:28:06.230 14/08/1994]',0.333,90.187
[11:28:06.232 14/08/1994]',0.319,90.498
[11:28:06.234 14/08/1994]',0.311,90.498
[11:28:06.236 14/08/1994]',0.304,90.498
[11:28:06.238 14/08/1994]',0.297,90.498
[11:28:06.240 14/08/1994]',0.289,90.576
[11:28:06.242 14/08/1994]',0.274,90.576
[11:28:06.244 14/08/1994]',0.267,90.576
[11:28:06.246 14/08/1994]',0.245,90.576
[11:28:06.248 14/08/1994]',0.23,90.498
[11:28:06.250 14/08/1994]',0.215,90.498
[11:28:06.252 14/08/1994]',0.2,90.498
[11:28:06.254 14/08/1994]',0.186,90.498
[11:28:06.256 14/08/1994]',0.163,90.187
[11:28:06.258 14/08/1994]',0.148,90.187
[11:28:06.260 14/08/1994]',0.141,90.187
[11:28:06.262 14/08/1994]',0.119,90.187
[11:28:06.264 14/08/1994]',0.104,89.72
[11:28:06.266 14/08/1994]',0.097,89.72
[11:28:06.268 14/08/1994]',0.082,89.72
[11:28:06.270 14/08/1994]',0.075,89.72
[11:28:06.272 14/08/1994]',0.052,88.941
[11:28:06.274 14/08/1994]',0.045,88.941
[11:28:06.276 14/08/1994]',0.052,88.941
[11:28:06.278 14/08/1994]',0.03,88.941
[11:28:06.280 14/08/1994]',0.03,88.006
[11:28:06.282 14/08/1994]',0.023,88.006
[11:28:06.284 14/08/1994]',0.023,88.006
[11:28:06.286 14/08/1994]',0.015,88.006
[11:28:06.288 14/08/1994]',0.008,86.604
[11:28:06.290 14/08/1994]',0.001,86.604
[11:28:06.292 14/08/1994]',0.001,86.604
[11:28:06.294 14/08/1994]',-0.007,86.604
[11:28:06.296 14/08/1994]',-0.007,84.969
[11:28:06.298 14/08/1994]',-0.007,84.969
[11:28:06.300 14/08/1994]',-0.007,84.969
[11:28:06.302 14/08/1994]',-0.014,84.969
[11:28:06.304 14/08/1994]',-0.014,83.022
[11:28:06.306 14/08/1994]',-0.022,83.022
[11:28:06.308 14/08/1994]',-0.022,83.022
[11:28:06.310 14/08/1994]',-0.022,83.022
[11:28:06.312 14/08/1994]',-0.022,80.919
[11:28:06.314 14/08/1994]',-0.029,80.919
[11:28:06.316 14/08/1994]',-0.022,80.919
[11:28:06.318 14/08/1994]',-0.022,80.919
[11:28:06.320 14/08/1994]',-0.029,78.66
[11:28:06.322 14/08/1994]',-0.029,78.66
[11:28:06.324 14/08/1994]',-0.036,78.66
[11:28:06.326 14/08/1994]',-0.044,78.66
[11:28:06.328 14/08/1994]',-0.029,76.324
[11:28:06.330 14/08/1994]',-0.022,76.324
[11:28:06.332 14/08/1994]',-0.036,76.324
[11:28:06.334 14/08/1994]',-0.036,76.324
[11:28:06.336 14/08/1994]',-0.036,73.988
[11:28:06.338 14/08/1994]',-0.036,73.988
[11:28:06.340 14/08/1994]',-0.036,73.988
[11:28:06.342 14/08/1994]',-0.036,73.988
[11:28:06.344 14/08/1994]',-0.036,71.573
[11:28:06.346 14/08/1994]',-0.029,71.573
[11:28:06.348 14/08/1994]',-0.029,71.573
[11:28:06.350 14/08/1994]',-0.029,71.573
[11:28:06.352 14/08/1994]',-0.022,69.315
[11:28:06.354 14/08/1994]',-0.022,69.315
[11:28:06.356 14/08/1994]',-0.014,69.315
[11:28:06.358 14/08/1994]',-0.022,69.315
[11:28:06.360 14/08/1994]',-0.014,67.212
[11:28:06.362 14/08/1994]',-0.014,67.212
[11:28:06.364 14/08/1994]',-0.022,67.212
[11:28:06.366 14/08/1994]',-0.022,67.212
[11:28:06.368 14/08/1994]',-0.014,65.421
[11:28:06.370 14/08/1994]',-0.022,65.421
[11:28:06.372 14/08/1994]',-0.022,65.421
[11:28:06.374 14/08/1994]',-0.022,65.421
[11:28:06.376 14/08/1994]',-0.014,64.252
[11:28:06.378 14/08/1994]',-0.022,64.252
[11:28:06.380 14/08/1994]',-0.022,64.252
[11:28:06.382 14/08/1994]',-0.022,64.252
[11:28:06.384 14/08/1994]',-0.022,63.551
[11:28:06.386 14/08/1994]',-0.022,63.551
[11:28:06.388 14/08/1994]',-0.022,63.551
[11:28:06.390 14/08/1994]',-0.022,63.551
[11:28:06.392 14/08/1994]',-0.029,63.474
[11:28:06.394 14/08/1994]',-0.022,63.474
[11:28:06.396 14/08/1994]',-0.029,63.474
[11:28:06.398 14/08/1994]',-0.022,63.474
[11:28:06.400 14/08/1994]',-0.022,63.629
[11:28:06.402 14/08/1994]',-0.014,63.629
[11:28:06.404 14/08/1994]',-0.014,63.629
[11:28:06.406 14/08/1994]',-0.022,63.629
[11:28:06.408 14/08/1994]',-0.022,63.863
[11:28:06.410 14/08/1994]',-0.022,63.863
[11:28:06.412 14/08/1994]',-0.022,63.863
[11:28:06.414 14/08/1994]',-0.014,63.863
[11:28:06.416 14/08/1994]',-0.014,64.097
[11:28:06.418 14/08/1994]',-0.014,64.097
[11:28:06.420 14/08/1994]',-0.022,64.097
[11:28:06.422 14/08/1994]',-0.014,64.097
[11:28:06.424 14/08/1994]',-0.014,64.33
[11:28:06.426 14/08/1994]',-0.014,64.33
[11:28:06.428 14/08/1994]',-0.022,64.33
[11:28:06.430 14/08/1994]',-0.022,64.33
[11:28:06.432 14/08/1994]',-0.014,64.33
[11:28:06.434 14/08/1994]',-0.022,64.33
[11:28:06.436 14/08/1994]',-0.022,64.33
[11:28:06.438 14/08/1994]',-0.014,64.33
[11:28:06.440 14/08/1994]',-0.022,64.33
[11:28:06.442 14/08/1994]',-0.014,64.33
[11:28:06.444 14/08/1994]',-0.014,64.33
[11:28:06.446 14/08/1994]',-0.007,64.33
[11:28:06.448 14/08/1994]',-0.007,64.174
[11:28:06.450 14/08/1994]',0.001,64.174
[11:28:06.452 14/08/1994]',-0.014,64.174
[11:28:06.454 14/08/1994]',-0.036,64.174
[11:28:06.456 14/08/1994]',-0.066,64.019
[11:28:06.458 14/08/1994]',-0.103,64.019
[11:28:06.460 14/08/1994]',-0.162,64.019
[11:28:06.462 14/08/1994]',-0.221,64.019
[11:28:06.464 14/08/1994]',-0.288,64.019
[11:28:06.466 14/08/1994]',-0.384,64.019
[11:28:06.468 14/08/1994]',-0.466,64.019
[11:28:06.470 14/08/1994]',-0.54,64.019
[11:28:06.472 14/08/1994]',-0.621,64.097
[11:28:06.474 14/08/1994]',-,64.097
[11:28:06.476 14/08/1994]',-,64.097
[11:28:06.478 14/08/1994]',-,64.097
[11:28:06.480 14/08/1994]',-,64.097
[11:28:06.482 14/08/1994]',-,64.097
[11:28:06.484 14/08/1994]',-,64.097
[11:28:06.486 14/08/1994]',-,64.097
[11:28:06.488 14/08/1994]',-,64.019
[11:28:06.490 14/08/1994]',-,64.019
[11:28:06.492 14/08/1994]',-,64.019
[11:28:06.494 14/08/1994]',-,64.019
[11:28:06.496 14/08/1994]',-,63.707
[11:28:06.498 14/08/1994]',-,63.707
[11:28:06.500 14/08/1994]',-,63.707
[11:28:06.502 14/08/1994]',-0.599,63.707
[11:28:06.504 14/08/1994]',-0.503,63.24
[11:28:06.506 14/08/1994]',-0.436,63.24
[11:28:06.508 14/08/1994]',-0.362,63.24
[11:28:06.510 14/08/1994]',-0.303,63.24
[11:28:06.512 14/08/1994]',-0.251,62.773
[11:28:06.514 14/08/1994]',-0.199,62.773
[11:28:06.516 14/08/1994]',-0.17,62.773
[11:28:06.518 14/08/1994]',-0.14,62.773
[11:28:06.520 14/08/1994]',-0.11,62.305
[11:28:06.522 14/08/1994]',-0.088,62.305
[11:28:06.524 14/08/1994]',-0.066,62.305
[11:28:06.526 14/08/1994]',-0.044,62.305
[11:28:06.528 14/08/1994]',-0.014,61.916
[11:28:06.530 14/08/1994]',0.001,61.916
[11:28:06.532 14/08/1994]',0.015,61.916
[11:28:06.534 14/08/1994]',0.03,61.916
[11:28:06.536 14/08/1994]',0.045,61.526
[11:28:06.538 14/08/1994]',0.067,61.526
[11:28:06.540 14/08/1994]',0.067,61.526
[11:28:06.542 14/08/1994]',0.075,61.526
[11:28:06.544 14/08/1994]',0.089,61.293
[11:28:06.546 14/08/1994]',0.104,61.293
[11:28:06.548 14/08/1994]',0.119,61.293
[11:28:06.550 14/08/1994]',0.119,61.293
[11:28:06.552 14/08/1994]',0.134,60.903
[11:28:06.554 14/08/1994]',0.141,60.903
[11:28:06.556 14/08/1994]',0.148,60.903
[11:28:06.558 14/08/1994]',0.148,60.903
[11:28:06.560 14/08/1994]',0.156,60.436
[11:28:06.562 14/08/1994]',0.156,60.436
[11:28:06.564 14/08/1994]',0.163,60.436
[11:28:06.566 14/08/1994]',0.163,60.436
[11:28:06.568 14/08/1994]',0.163,59.813
[11:28:06.570 14/08/1994]',0.163,59.813
[11:28:06.572 14/08/1994]',0.163,59.813
[11:28:06.574 14/08/1994]',0.156,59.813
[11:28:06.576 14/08/1994]',0.163,59.19
[11:28:06.578 14/08/1994]',0.163,59.19
[11:28:06.580 14/08/1994]',0.163,59.19
[11:28:06.582 14/08/1994]',0.163,59.19
[11:28:06.584 14/08/1994]',0.163,58.645
[11:28:06.586 14/08/1994]',0.163,58.645
[11:28:06.588 14/08/1994]',0.163,58.645
[11:28:06.590 14/08/1994]',0.163,58.645
[11:28:06.592 14/08/1994]',0.163,58.178
[11:28:06.594 14/08/1994]',0.163,58.178
[11:28:06.596 14/08/1994]',0.171,58.178
[11:28:06.598 14/08/1994]',0.178,58.178
[11:28:06.600 14/08/1994]',0.178,57.71
[11:28:06.602 14/08/1994]',0.171,57.71
[11:28:06.604 14/08/1994]',0.171,57.71
[11:28:06.606 14/08/1994]',0.171,57.71
[11:28:06.608 14/08/1994]',0.178,57.321
[11:28:06.610 14/08/1994]',0.178,57.321
[11:28:06.612 14/08/1994]',0.178,57.321
[11:28:06.614 14/08/1994]',0.171,57.321
[11:28:06.616 14/08/1994]',0.186,56.854
[11:28:06.618 14/08/1994]',0.178,56.854
[11:28:06.620 14/08/1994]',0.178,56.854
[11:28:06.622 14/08/1994]',0.171,56.854
[11:28:06.624 14/08/1994]',0.171,56.308
[11:28:06.626 14/08/1994]',0.178,56.308
[11:28:06.628 14/08/1994]',0.178,56.308
[11:28:06.630 14/08/1994]',0.186,56.308
[11:28:06.632 14/08/1994]',0.178,55.997
[11:28:06.634 14/08/1994]',0.178,55.997
[11:28:06.636 14/08/1994]',0.171,55.997
[11:28:06.638 14/08/1994]',0.163,55.997
[11:28:06.640 14/08/1994]',0.163,56.075
[11:28:06.642 14/08/1994]',0.156,56.075
[11:28:06.644 14/08/1994]',0.163,56.075
[11:28:06.646 14/08/1994]',0.163,56.075
[11:28:06.648 14/08/1994]',0.171,57.165
[11:28:06.650 14/08/1994]',0.186,57.165
[11:28:06.652 14/08/1994]',0.178,57.165
[11:28:06.654 14/08/1994]',0.186,57.165
[11:28:06.656 14/08/1994]',0.2,60.047
[11:28:06.658 14/08/1994]',0.208,60.047
[11:28:06.660 14/08/1994]',0.208,60.047
[11:28:06.662 14/08/1994]',0.222,60.047
[11:28:06.664 14/08/1994]',0.215,65.187
[11:28:06.666 14/08/1994]',0.222,65.187
[11:28:06.668 14/08/1994]',0.23,65.187
[11:28:06.670 14/08/1994]',0.23,65.187
[11:28:06.672 14/08/1994]',0.237,72.118
[11:28:06.674 14/08/1994]',0.245,72.118
[11:28:06.676 14/08/1994]',0.252,72.118
[11:28:06.678 14/08/1994]',0.267,72.118
[11:28:06.680 14/08/1994]',0.267,79.128
[11:28:06.682 14/08/1994]',0.282,79.128
[11:28:06.684 14/08/1994]',0.282,79.128
[11:28:06.686 14/08/1994]',0.297,79.128
[11:28:06.688 14/08/1994]',0.304,84.657
[11:28:06.690 14/08/1994]',0.304,84.657
[11:28:06.692 14/08/1994]',0.311,84.657
[11:28:06.694 14/08/1994]',0.311,84.657
[11:28:06.696 14/08/1994]',0.319,88.162
[11:28:06.698 14/08/1994]',0.319,88.162
[11:28:06.700 14/08/1994]',0.333,88.162
[11:28:06.702 14/08/1994]',0.319,88.162
[11:28:06.704 14/08/1994]',0.341,90.031
[11:28:06.706 14/08/1994]',0.348,90.031
[11:28:06.708 14/08/1994]',0.341,90.031
[11:28:06.710 14/08/1994]',0.348,90.031
[11:28:06.712 14/08/1994]',0.341,90.966
[11:28:06.714 14/08/1994]',0.341,90.966
[11:28:06.716 14/08/1994]',0.333,90.966
[11:28:06.718 14/08/1994]',0.333,90.966
[11:28:06.720 14/08/1994]',0.319,91.355
[11:28:06.722 14/08/1994]',0.319,91.355
[11:28:06.724 14/08/1994]',0.311,91.355
[11:28:06.726 14/08/1994]',0.304,91.355
[11:28:06.728 14/08/1994]',0.304,91.511
[11:28:06.730 14/08/1994]',0.297,91.511
[11:28:06.732 14/08/1994]',0.282,91.511
[11:28:06.734 14/08/1994]',0.267,91.511
[11:28:06.736 14/08/1994]',0.252,91.589
[11:28:06.738 14/08/1994]',0.237,91.589
[11:28:06.740 14/08/1994]',0.23,91.589
[11:28:06.742 14/08/1994]',0.208,91.589
[11:28:06.744 14/08/1994]',0.2,91.433
[11:28:06.746 14/08/1994]',0.186,91.433
[11:28:06.748 14/08/1994]',0.178,91.433
[11:28:06.750 14/08/1994]',0.156,91.433
[11:28:06.752 14/08/1994]',0.141,91.121
[11:28:06.754 14/08/1994]',0.111,91.121
[11:28:06.756 14/08/1994]',0.104,91.121
[11:28:06.758 14/08/1994]',0.089,91.121
[11:28:06.760 14/08/1994]',0.082,90.498
[11:28:06.762 14/08/1994]',0.075,90.498
[11:28:06.764 14/08/1994]',0.052,90.498
[11:28:06.766 14/08/1994]',0.045,90.498
[11:28:06.768 14/08/1994]',0.045,89.486
[11:28:06.770 14/08/1994]',0.037,89.486
[11:28:06.772 14/08/1994]',0.023,89.486
[11:28:06.774 14/08/1994]',0.015,89.486
[11:28:06.776 14/08/1994]',0.008,88.24
[11:28:06.778 14/08/1994]',0.008,88.24
[11:28:06.780 14/08/1994]',0.001,88.24
[11:28:06.782 14/08/1994]',0.008,88.24
[11:28:06.784 14/08/1994]',0.015,86.604
[11:28:06.786 14/08/1994]',0.001,86.604
[11:28:06.788 14/08/1994]',0.001,86.604
[11:28:06.790 14/08/1994]',-0.007,86.604
[11:28:06.792 14/08/1994]',-0.022,84.735
[11:28:06.794 14/08/1994]',-0.029,84.735
[11:28:06.796 14/08/1994]',-0.036,84.735
[11:28:06.798 14/08/1994]',-0.044,84.735
[11:28:06.800 14/08/1994]',-0.066,82.477
[11:28:06.802 14/08/1994]',-0.066,82.477
[11:28:06.804 14/08/1994]',-0.051,82.477
[11:28:06.806 14/08/1994]',-0.051,82.477
[11:28:06.808 14/08/1994]',-0.036,80.14
[11:28:06.810 14/08/1994]',-0.036,80.14
[11:28:06.812 14/08/1994]',-0.029,80.14
[11:28:06.814 14/08/1994]',-0.044,80.14
[11:28:06.816 14/08/1994]',-0.066,77.648
[11:28:06.818 14/08/1994]',-0.088,77.648
[11:28:06.820 14/08/1994]',-0.11,77.648
[11:28:06.822 14/08/1994]',-0.133,77.648
[11:28:06.824 14/08/1994]',-0.14,75.156
[11:28:06.826 14/08/1994]',-0.133,75.156
[11:28:06.828 14/08/1994]',-0.103,75.156
[11:28:06.830 14/08/1994]',-0.051,75.156
[11:28:06.832 14/08/1994]',-0.029,72.664
[11:28:06.834 14/08/1994]',-0.014,72.664
[11:28:06.836 14/08/1994]',-0.007,72.664
[11:28:06.838 14/08/1994]',0.008,72.664
[11:28:06.840 14/08/1994]',0.015,70.171
[11:28:06.842 14/08/1994]',0.008,70.171
[11:28:06.844 14/08/1994]',0.008,70.171
[11:28:06.846 14/08/1994]',0.015,70.171
[11:28:06.848 14/08/1994]',0.023,67.679
[11:28:06.850 14/08/1994]',0.015,67.679
[11:28:06.852 14/08/1994]',0.015,67.679
[11:28:06.854 14/08/1994]',0.015,67.679
[11:28:06.856 14/08/1994]',0.015,65.343
[11:28:06.858 14/08/1994]',0.015,65.343
[11:28:06.860 14/08/1994]',0.015,65.343
[11:28:06.862 14/08/1994]',0.015,65.343
[11:28:06.864 14/08/1994]',0.008,63.318
[11:28:06.866 14/08/1994]',0.001,63.318
[11:28:06.868 14/08/1994]',-0.007,63.318
[11:28:06.870 14/08/1994]',-0.014,63.318
[11:28:06.872 14/08/1994]',-0.022,61.76
[11:28:06.874 14/08/1994]',-0.022,61.76
[11:28:06.876 14/08/1994]',-0.022,61.76
[11:28:06.878 14/08/1994]',-0.022,61.76
[11:28:06.880 14/08/1994]',-0.014,60.748
[11:28:06.882 14/08/1994]',-0.022,60.748
[11:28:06.884 14/08/1994]',-0.022,60.748
[11:28:06.886 14/08/1994]',-0.014,60.748
[11:28:06.888 14/08/1994]',-0.014,60.358
[11:28:06.890 14/08/1994]',-0.014,60.358
[11:28:06.892 14/08/1994]',-0.014,60.358
[11:28:06.894 14/08/1994]',-0.022,60.358
[11:28:06.896 14/08/1994]',-0.022,60.202
[11:28:06.898 14/08/1994]',-0.022,60.202
[11:28:06.900 14/08/1994]',-0.014,60.202
[11:28:06.902 14/08/1994]',-0.014,60.202
[11:28:06.904 14/08/1994]',-0.014,60.28
[11:28:06.906 14/08/1994]',-0.014,60.28
[11:28:06.908 14/08/1994]',-0.022,60.28
[11:28:06.910 14/08/1994]',-0.022,60.28
[11:28:06.912 14/08/1994]',-0.014,60.28
[11:28:06.914 14/08/1994]',-0.007,60.28
[11:28:06.916 14/08/1994]',-0.007,60.28
[11:28:06.918 14/08/1994]',-0.014,60.28
[11:28:06.920 14/08/1994]',-0.022,60.202
[11:28:06.922 14/08/1994]',-0.022,60.202
[11:28:06.924 14/08/1994]',-0.029,60.202
[11:28:06.926 14/08/1994]',-0.029,60.202
[11:28:06.928 14/08/1994]',-0.022,60.125
[11:28:06.930 14/08/1994]',-0.029,60.125
[11:28:06.932 14/08/1994]',-0.022,60.125
[11:28:06.934 14/08/1994]',-0.022,60.125
[11:28:06.936 14/08/1994]',-0.014,60.047
[11:28:06.938 14/08/1994]',-0.007,60.047
[11:28:06.940 14/08/1994]',-0.007,60.047
[11:28:06.942 14/08/1994]',-0.007,60.047
[11:28:06.944 14/08/1994]',-0.014,60.047
[11:28:06.946 14/08/1994]',-0.036,60.047
[11:28:06.948 14/08/1994]',-0.051,60.047
[11:28:06.950 14/08/1994]',-0.096,60.047
[11:28:06.952 14/08/1994]',-0.147,59.969
[11:28:06.954 14/08/1994]',-0.214,59.969
[11:28:06.956 14/08/1994]',-0.288,59.969
[11:28:06.958 14/08/1994]',-0.377,59.969
[11:28:06.960 14/08/1994]',-0.466,59.891
[11:28:06.962 14/08/1994]',-0.54,59.891
[11:28:06.964 14/08/1994]',-0.614,59.891
[11:28:06.966 14/08/1994]',-,59.891
[11:28:06.968 14/08/1994]',-,59.657
[11:28:06.970 14/08/1994]',-,59.657
[11:28:06.972 14/08/1994]',-,59.657
[11:28:06.974 14/08/1994]',-,59.657
[11:28:06.976 14/08/1994]',-,59.502
[11:28:06.978 14/08/1994]',-,59.502
[11:28:06.980 14/08/1994]',-,59.502
[11:28:06.982 14/08/1994]',-,59.502
[11:28:06.984 14/08/1994]',-,59.19
[11:28:06.986 14/08/1994]',-,59.19
[11:28:06.988 14/08/1994]',-,59.19
[11:28:06.990 14/08/1994]',-,59.19
[11:28:06.992 14/08/1994]',-,58.956
[11:28:06.994 14/08/1994]',-0.606,58.956
[11:28:06.996 14/08/1994]',-0.518,58.956
[11:28:06.998 14/08/1994]',-0.451,58.956
[11:28:07.000 14/08/1994]',-0.399,58.567
[11:28:07.002 14/08/1994]',-0.34,58.567
[11:28:07.004 14/08/1994]',-0.296,58.567
[11:28:07.006 14/08/1994]',-0.244,58.567
[11:28:07.008 14/08/1994]',-0.199,58.1
[11:28:07.010 14/08/1994]',-0.177,58.1
[11:28:07.012 14/08/1994]',-0.133,58.1
[11:28:07.014 14/08/1994]',-0.103,58.1
[11:28:07.016 14/08/1994]',-0.074,57.632
[11:28:07.018 14/08/1994]',-0.051,57.632
[11:28:07.020 14/08/1994]',-0.044,57.632
[11:28:07.022 14/08/1994]',-0.036,57.632
[11:28:07.024 14/08/1994]',-0.029,57.165
[11:28:07.026 14/08/1994]',-0.007,57.165
[11:28:07.028 14/08/1994]',0.015,57.165
[11:28:07.030 14/08/1994]',0.045,57.165
[11:28:07.032 14/08/1994]',0.067,56.854
[11:28:07.034 14/08/1994]',0.075,56.854
[11:28:07.036 14/08/1994]',0.082,56.854
[11:28:07.038 14/08/1994]',0.089,56.854
[11:28:07.040 14/08/1994]',0.089,56.464
[11:28:07.042 14/08/1994]',0.082,56.464
[11:28:07.044 14/08/1994]',0.089,56.464
[11:28:07.046 14/08/1994]',0.097,56.464
[11:28:07.048 14/08/1994]',0.097,56.075
[11:28:07.050 14/08/1994]',0.089,56.075
[11:28:07.052 14/08/1994]',0.097,56.075
[11:28:07.054 14/08/1994]',0.111,56.075
[11:28:07.056 14/08/1994]',0.111,55.685
[11:28:07.058 14/08/1994]',0.111,55.685
[11:28:07.060 14/08/1994]',0.104,55.685
[11:28:07.062 14/08/1994]',0.097,55.685
[11:28:07.064 14/08/1994]',0.097,55.218
[11:28:07.066 14/08/1994]',0.104,55.218
[11:28:07.068 14/08/1994]',0.104,55.218
[11:28:07.070 14/08/1994]',0.111,55.218
[11:28:07.072 14/08/1994]',0.111,54.751
[11:28:07.074 14/08/1994]',0.111,54.751
[11:28:07.076 14/08/1994]',0.111,54.751
[11:28:07.078 14/08/1994]',0.111,54.751
[11:28:07.080 14/08/1994]',0.097,54.206
[11:28:07.082 14/08/1994]',0.097,54.206
[11:28:07.084 14/08/1994]',0.075,54.206
[11:28:07.086 14/08/1994]',0.075,54.206
[11:28:07.088 14/08/1994]',0.067,53.738
[11:28:07.090 14/08/1994]',0.052,53.738
[11:28:07.092 14/08/1994]',0.067,53.738
[11:28:07.094 14/08/1994]',0.075,53.738
[11:28:07.096 14/08/1994]',0.082,53.193
[11:28:07.098 14/08/1994]',0.082,53.193
[11:28:07.100 14/08/1994]',0.089,53.193
[11:28:07.102 14/08/1994]',0.082,53.193
[11:28:07.104 14/08/1994]',0.075,52.648
[11:28:07.106 14/08/1994]',0.075,52.648
[11:28:07.108 14/08/1994]',0.082,52.648
[11:28:07.110 14/08/1994]',0.104,52.648
[11:28:07.112 14/08/1994]',0.134,52.103
[11:28:07.114 14/08/1994]',0.163,52.103
[11:28:07.116 14/08/1994]',0.178,52.103
[11:28:07.118 14/08/1994]',0.178,52.103
[11:28:07.120 14/08/1994]',0.171,51.558
[11:28:07.122 14/08/1994]',0.163,51.558
[11:28:07.124 14/08/1994]',0.141,51.558
[11:28:07.126 14/08/1994]',0.141,51.558
[11:28:07.128 14/08/1994]',0.111,51.246
[11:28:07.130 14/08/1994]',0.111,51.246
[11:28:07.132 14/08/1994]',0.111,51.246
[11:28:07.134 14/08/1994]',0.104,51.246
[11:28:07.136 14/08/1994]',0.097,51.246
[11:28:07.138 14/08/1994]',0.089,51.246
[11:28:07.140 14/08/1994]',0.089,51.246
[11:28:07.142 14/08/1994]',0.089,51.246
[11:28:07.144 14/08/1994]',0.097,52.259
[11:28:07.146 14/08/1994]',0.097,52.259
[11:28:07.148 14/08/1994]',0.089,52.259
[11:28:07.150 14/08/1994]',0.097,52.259
[11:28:07.152 14/08/1994]',0.082,54.907
[11:28:07.154 14/08/1994]',0.082,54.907
[11:28:07.156 14/08/1994]',0.082,54.907
[11:28:07.158 14/08/1994]',0.082,54.907
[11:28:07.160 14/08/1994]',0.075,59.579
[11:28:07.162 14/08/1994]',0.075,59.579
[11:28:07.164 14/08/1994]',0.067,59.579
[11:28:07.166 14/08/1994]',0.075,59.579
[11:28:07.168 14/08/1994]',0.089,65.81
[11:28:07.170 14/08/1994]',0.104,65.81
[11:28:07.172 14/08/1994]',0.134,65.81
[11:28:07.174 14/08/1994]',0.163,65.81
[11:28:07.176 14/08/1994]',0.186,72.04
[11:28:07.178 14/08/1994]',0.208,72.04
[11:28:07.180 14/08/1994]',0.208,72.04
[11:28:07.182 14/08/1994]',0.208,72.04
[11:28:07.184 14/08/1994]',0.2,77.025
[11:28:07.186 14/08/1994]',0.2,77.025
[11:28:07.188 14/08/1994]',0.186,77.025
[11:28:07.190 14/08/1994]',0.178,77.025
[11:28:07.192 14/08/1994]',0.186,80.374
[11:28:07.194 14/08/1994]',0.186,80.374
[11:28:07.196 14/08/1994]',0.2,80.374
[11:28:07.198 14/08/1994]',0.208,80.374
[11:28:07.200 14/08/1994]',0.208,82.399
[11:28:07.202 14/08/1994]',0.215,82.399
[11:28:07.204 14/08/1994]',0.222,82.399
[11:28:07.206 14/08/1994]',0.222,82.399
[11:28:07.208 14/08/1994]',0.222,83.645
[11:28:07.210 14/08/1994]',0.222,83.645
[11:28:07.212 14/08/1994]',0.222,83.645
[11:28:07.214 14/08/1994]',0.237,83.645
[11:28:07.216 14/08/1994]',0.245,84.346
[11:28:07.218 14/08/1994]',0.245,84.346
[11:28:07.220 14/08/1994]',0.245,84.346
[11:28:07.222 14/08/1994]',0.245,84.346
[11:28:07.224 14/08/1994]',0.237,84.424
[11:28:07.226 14/08/1994]',0.23,84.424
[11:28:07.228 14/08/1994]',0.23,84.424
[11:28:07.230 14/08/1994]',0.237,84.424
[11:28:07.232 14/08/1994]',0.237,84.346
[11:28:07.234 14/08/1994]',0.23,84.346
[11:28:07.236 14/08/1994]',0.215,84.346
[11:28:07.238 14/08/1994]',0.208,84.346
[11:28:07.240 14/08/1994]',0.215,84.034
[11:28:07.242 14/08/1994]',0.222,84.034
[11:28:07.244 14/08/1994]',0.23,84.034
[11:28:07.246 14/08/1994]',0.222,84.034
[11:28:07.248 14/08/1994]',0.215,83.411
[11:28:07.250 14/08/1994]',0.215,83.411
[11:28:07.252 14/08/1994]',0.208,83.411
[11:28:07.254 14/08/1994]',0.2,83.411
[11:28:07.256 14/08/1994]',0.2,82.555
[11:28:07.258 14/08/1994]',0.2,82.555
[11:28:07.260 14/08/1994]',0.186,82.555
[11:28:07.262 14/08/1994]',0.186,82.555
[11:28:07.264 14/08/1994]',0.2,81.464
[11:28:07.266 14/08/1994]',0.178,81.464
[11:28:07.268 14/08/1994]',0.178,81.464
[11:28:07.270 14/08/1994]',0.186,81.464
[11:28:07.272 14/08/1994]',0.178,80.062
[11:28:07.274 14/08/1994]',0.156,80.062
[11:28:07.276 14/08/1994]',0.148,80.062
[11:28:07.278 14/08/1994]',0.119,80.062
[11:28:07.280 14/08/1994]',0.097,78.427
[11:28:07.282 14/08/1994]',0.067,78.427
[11:28:07.284 14/08/1994]',0.052,78.427
[11:28:07.286 14/08/1994]',0.052,78.427
[11:28:07.288 14/08/1994]',0.045,76.558
[11:28:07.290 14/08/1994]',0.037,76.558
[11:28:07.292 14/08/1994]',0.015,76.558
[11:28:07.294 14/08/1994]',0.015,76.558
[11:28:07.296 14/08/1994]',0.015,74.377
[11:28:07.298 14/08/1994]',0.023,74.377
[11:28:07.300 14/08/1994]',0.023,74.377
[11:28:07.302 14/08/1994]',0.023,74.377
[11:28:07.304 14/08/1994]',0.03,72.118
[11:28:07.306 14/08/1994]',0.023,72.118
[11:28:07.308 14/08/1994]',0.023,72.118
[11:28:07.310 14/08/1994]',0.023,72.118
[11:28:07.312 14/08/1994]',0.015,69.782
[11:28:07.314 14/08/1994]',0.023,69.782
[11:28:07.316 14/08/1994]',0.023,69.782
[11:28:07.318 14/08/1994]',0.023,69.782
[11:28:07.320 14/08/1994]',0.023,67.368
[11:28:07.322 14/08/1994]',0.03,67.368
[11:28:07.324 14/08/1994]',0.037,67.368
[11:28:07.326 14/08/1994]',0.052,67.368
[11:28:07.328 14/08/1994]',0.067,65.031
[11:28:07.330 14/08/1994]',0.075,65.031
[11:28:07.332 14/08/1994]',0.082,65.031
[11:28:07.334 14/08/1994]',0.089,65.031
[11:28:07.336 14/08/1994]',0.089,62.695
[11:28:07.338 14/08/1994]',0.082,62.695
[11:28:07.340 14/08/1994]',0.075,62.695
[11:28:07.342 14/08/1994]',0.067,62.695
[11:28:07.344 14/08/1994]',0.067,60.67
[11:28:07.346 14/08/1994]',0.067,60.67
[11:28:07.348 14/08/1994]',0.075,60.67
[11:28:07.350 14/08/1994]',0.075,60.67
[11:28:07.352 14/08/1994]',0.067,58.879
[11:28:07.354 14/08/1994]',0.067,58.879
[11:28:07.356 14/08/1994]',0.052,58.879
[11:28:07.358 14/08/1994]',0.052,58.879
[11:28:07.360 14/08/1994]',0.045,57.632
[11:28:07.362 14/08/1994]',0.03,57.632
[11:28:07.364 14/08/1994]',0.037,57.632
[11:28:07.366 14/08/1994]',0.045,57.632
[11:28:07.368 14/08/1994]',0.052,57.009
[11:28:07.370 14/08/1994]',0.067,57.009
[11:28:07.372 14/08/1994]',0.075,57.009
[11:28:07.374 14/08/1994]',0.067,57.009
[11:28:07.376 14/08/1994]',0.067,57.009
[11:28:07.378 14/08/1994]',0.067,57.009
[11:28:07.380 14/08/1994]',0.052,57.009
[11:28:07.382 14/08/1994]',0.052,57.009
[11:28:07.384 14/08/1994]',0.037,57.399
[11:28:07.386 14/08/1994]',0.023,57.399
[11:28:07.388 14/08/1994]',0.015,57.399
[11:28:07.390 14/08/1994]',0.008,57.399
[11:28:07.392 14/08/1994]',0.008,57.944
[11:28:07.394 14/08/1994]',0.015,57.944
[11:28:07.396 14/08/1994]',0.037,57.944
[11:28:07.398 14/08/1994]',0.052,57.944
[11:28:07.400 14/08/1994]',0.052,58.567
[11:28:07.402 14/08/1994]',0.052,58.567
[11:28:07.404 14/08/1994]',0.052,58.567
[11:28:07.406 14/08/1994]',0.045,58.567
[11:28:07.408 14/08/1994]',0.037,59.034
[11:28:07.410 14/08/1994]',0.023,59.034
[11:28:07.412 14/08/1994]',0.015,59.034
[11:28:07.414 14/08/1994]',0.008,59.034
[11:28:07.416 14/08/1994]',0.008,59.502
[11:28:07.418 14/08/1994]',-0.007,59.502
[11:28:07.420 14/08/1994]',0.001,59.502
[11:28:07.422 14/08/1994]',0.008,59.502
[11:28:07.424 14/08/1994]',0.037,59.657
[11:28:07.426 14/08/1994]',0.052,59.657
[11:28:07.428 14/08/1994]',0.082,59.657
[11:28:07.430 14/08/1994]',0.089,59.657
[11:28:07.432 14/08/1994]',0.089,59.891
[11:28:07.434 14/08/1994]',0.075,59.891
[11:28:07.436 14/08/1994]',0.052,59.891
[11:28:07.438 14/08/1994]',0.023,59.891
[11:28:07.440 14/08/1994]',-0.022,59.891
[11:28:07.442 14/08/1994]',-0.081,59.891
[11:28:07.444 14/08/1994]',-0.155,59.891
[11:28:07.446 14/08/1994]',-0.221,59.891
[11:28:07.448 14/08/1994]',-0.332,60.047
[11:28:07.450 14/08/1994]',-0.436,60.047
[11:28:07.452 14/08/1994]',-0.54,60.047
[11:28:07.454 14/08/1994]',-0.614,60.047
[11:28:07.456 14/08/1994]',-0.688,60.125
[11:28:07.458 14/08/1994]',-,60.125
[11:28:07.460 14/08/1994]',-,60.125
[11:28:07.462 14/08/1994]',-,60.125
[11:28:07.464 14/08/1994]',-,60.125
[11:28:07.466 14/08/1994]',-,60.125
[11:28:07.468 14/08/1994]',-,60.125
[11:28:07.470 14/08/1994]',-,60.125
[11:28:07.472 14/08/1994]',-,60.047
[11:28:07.474 14/08/1994]',-,60.047
[11:28:07.476 14/08/1994]',-,60.047
[11:28:07.478 14/08/1994]',-,60.047
[11:28:07.480 14/08/1994]',-,59.969
[11:28:07.482 14/08/1994]',-,59.969
[11:28:07.484 14/08/1994]',-0.636,59.969
[11:28:07.486 14/08/1994]',-0.518,59.969
[11:28:07.488 14/08/1994]',-0.421,59.891
[11:28:07.490 14/08/1994]',-0.355,59.891
[11:28:07.492 14/08/1994]',-0.296,59.891
[11:28:07.494 14/08/1994]',-0.236,59.891
[11:28:07.496 14/08/1994]',-0.199,59.813
[11:28:07.498 14/08/1994]',-0.185,59.813
[11:28:07.500 14/08/1994]',-0.162,59.813
[11:28:07.502 14/08/1994]',-0.155,59.813
[11:28:07.504 14/08/1994]',-0.133,59.735
[11:28:07.506 14/08/1994]',-0.088,59.735
[11:28:07.508 14/08/1994]',-0.036,59.735
[11:28:07.510 14/08/1994]',0.015,59.735
[11:28:07.512 14/08/1994]',0.052,59.735
[11:28:07.514 14/08/1994]',0.082,59.735
[11:28:07.516 14/08/1994]',0.104,59.735
[11:28:07.518 14/08/1994]',0.111,59.735
[11:28:07.520 14/08/1994]',0.119,59.657
[11:28:07.522 14/08/1994]',0.119,59.657
[11:28:07.524 14/08/1994]',0.134,59.657
[11:28:07.526 14/08/1994]',0.134,59.657
[11:28:07.528 14/08/1994]',0.141,59.657
[11:28:07.530 14/08/1994]',0.148,59.657
[11:28:07.532 14/08/1994]',0.156,59.657
[11:28:07.534 14/08/1994]',0.156,59.657
[11:28:07.536 14/08/1994]',0.156,59.657
[11:28:07.538 14/08/1994]',0.156,59.657
[11:28:07.540 14/08/1994]',0.148,59.657
[11:28:07.542 14/08/1994]',0.148,59.657
[11:28:07.544 14/08/1994]',0.156,59.579
[11:28:07.546 14/08/1994]',0.156,59.579
[11:28:07.548 14/08/1994]',0.156,59.579
[11:28:07.550 14/08/1994]',0.156,59.579
[11:28:07.552 14/08/1994]',0.156,59.502
[11:28:07.554 14/08/1994]',0.163,59.502
[11:28:07.556 14/08/1994]',0.148,59.502
[11:28:07.558 14/08/1994]',0.141,59.502
[11:28:07.560 14/08/1994]',0.156,59.424
[11:28:07.562 14/08/1994]',0.178,59.424
[11:28:07.564 14/08/1994]',0.215,59.424
[11:28:07.566 14/08/1994]',0.237,59.424
[11:28:07.568 14/08/1994]',0.245,59.346
[11:28:07.570 14/08/1994]',0.245,59.346
[11:28:07.572 14/08/1994]',0.237,59.346
[11:28:07.574 14/08/1994]',0.23,59.346
[11:28:07.576 14/08/1994]',0.215,59.268
[11:28:07.578 14/08/1994]',0.208,59.268
[11:28:07.580 14/08/1994]',0.186,59.268
[11:28:07.582 14/08/1994]',0.186,59.268
[11:28:07.584 14/08/1994]',0.186,59.19
[11:28:07.586 14/08/1994]',0.178,59.19
[11:28:07.588 14/08/1994]',0.171,59.19
[11:28:07.590 14/08/1994]',0.156,59.19
[11:28:07.592 14/08/1994]',0.156,59.112
[11:28:07.594 14/08/1994]',0.148,59.112
[11:28:07.596 14/08/1994]',0.156,59.112
[11:28:07.598 14/08/1994]',0.156,59.112
[11:28:07.600 14/08/1994]',0.163,59.034
[11:28:07.602 14/08/1994]',0.163,59.034
[11:28:07.604 14/08/1994]',0.163,59.034
[11:28:07.606 14/08/1994]',0.178,59.034
[11:28:07.608 14/08/1994]',0.2,59.034
[11:28:07.610 14/08/1994]',0.222,59.034
[11:28:07.612 14/08/1994]',0.252,59.034
[11:28:07.614 14/08/1994]',0.252,59.034
[11:28:07.616 14/08/1994]',0.245,58.956
[11:28:07.618 14/08/1994]',0.245,58.956
[11:28:07.620 14/08/1994]',0.245,58.956
[11:28:07.622 14/08/1994]',0.237,58.956
[11:28:07.624 14/08/1994]',0.237,59.034
[11:28:07.626 14/08/1994]',0.237,59.034
[11:28:07.628 14/08/1994]',0.245,59.034
[11:28:07.630 14/08/1994]',0.252,59.034
[11:28:07.632 14/08/1994]',0.267,59.657
[11:28:07.634 14/08/1994]',0.267,59.657
[11:28:07.636 14/08/1994]',0.267,59.657
[11:28:07.638 14/08/1994]',0.252,59.657
[11:28:07.640 14/08/1994]',0.267,61.371
[11:28:07.642 14/08/1994]',0.267,61.371
[11:28:07.644 14/08/1994]',0.252,61.371
[11:28:07.646 14/08/1994]',0.267,61.371
[11:28:07.648 14/08/1994]',0.274,64.72
[11:28:07.650 14/08/1994]',0.267,64.72
[11:28:07.652 14/08/1994]',0.252,64.72
[11:28:07.654 14/08/1994]',0.245,64.72
[11:28:07.656 14/08/1994]',0.245,69.704
[11:28:07.658 14/08/1994]',0.252,69.704
[11:28:07.660 14/08/1994]',0.274,69.704
[11:28:07.662 14/08/1994]',0.274,69.704
[11:28:07.664 14/08/1994]',0.274,75.467
[11:28:07.666 14/08/1994]',0.297,75.467
[11:28:07.668 14/08/1994]',0.319,75.467
[11:28:07.670 14/08/1994]',0.348,75.467
[11:28:07.672 14/08/1994]',0.356,80.607
[11:28:07.674 14/08/1994]',0.363,80.607
[11:28:07.676 14/08/1994]',0.363,80.607
[11:28:07.678 14/08/1994]',0.363,80.607
[11:28:07.680 14/08/1994]',0.378,84.502
[11:28:07.682 14/08/1994]',0.378,84.502
[11:28:07.684 14/08/1994]',0.378,84.502
[11:28:07.686 14/08/1994]',0.37,84.502
[11:28:07.688 14/08/1994]',0.37,87.072
[11:28:07.690 14/08/1994]',0.363,87.072
[11:28:07.692 14/08/1994]',0.363,87.072
[11:28:07.694 14/08/1994]',0.363,87.072
[11:28:07.696 14/08/1994]',0.356,88.474
[11:28:07.698 14/08/1994]',0.348,88.474
[11:28:07.700 14/08/1994]',0.356,88.474
[11:28:07.702 14/08/1994]',0.356,88.474
[11:28:07.704 14/08/1994]',0.348,89.174
[11:28:07.706 14/08/1994]',0.341,89.174
[11:28:07.708 14/08/1994]',0.333,89.174
[11:28:07.710 14/08/1994]',0.319,89.174
[11:28:07.712 14/08/1994]',0.311,89.33
[11:28:07.714 14/08/1994]',0.304,89.33
[11:28:07.716 14/08/1994]',0.297,89.33
[11:28:07.718 14/08/1994]',0.274,89.33
[11:28:07.720 14/08/1994]',0.252,89.174
[11:28:07.722 14/08/1994]',0.237,89.174
[11:28:07.724 14/08/1994]',0.222,89.174
[11:28:07.726 14/08/1994]',0.215,89.174
[11:28:07.728 14/08/1994]',0.208,88.785
[11:28:07.730 14/08/1994]',0.208,88.785
[11:28:07.732 14/08/1994]',0.2,88.785
[11:28:07.734 14/08/1994]',0.171,88.785
[11:28:07.736 14/08/1994]',0.148,88.24
[11:28:07.738 14/08/1994]',0.119,88.24
[11:28:07.740 14/08/1994]',0.097,88.24
[11:28:07.742 14/08/1994]',0.067,88.24
[11:28:07.744 14/08/1994]',0.052,87.383
[11:28:07.746 14/08/1994]',0.052,87.383
[11:28:07.748 14/08/1994]',0.075,87.383
[11:28:07.750 14/08/1994]',0.082,87.383
[11:28:07.752 14/08/1994]',0.082,86.293
[11:28:07.754 14/08/1994]',0.089,86.293
[11:28:07.756 14/08/1994]',0.089,86.293
[11:28:07.758 14/08/1994]',0.097,86.293
[11:28:07.760 14/08/1994]',0.097,84.969
[11:28:07.762 14/08/1994]',0.104,84.969
[11:28:07.764 14/08/1994]',0.097,84.969
[11:28:07.766 14/08/1994]',0.082,84.969
[11:28:07.768 14/08/1994]',0.075,83.411
[11:28:07.770 14/08/1994]',0.052,83.411
[11:28:07.772 14/08/1994]',0.03,83.411
[11:28:07.774 14/08/1994]',0.023,83.411
[11:28:07.776 14/08/1994]',0.008,81.62
[11:28:07.778 14/08/1994]',0.001,81.62
[11:28:07.780 14/08/1994]',0.008,81.62
[11:28:07.782 14/08/1994]',0.008,81.62
[11:28:07.784 14/08/1994]',0.001,79.595
[11:28:07.786 14/08/1994]',-0.007,79.595
[11:28:07.788 14/08/1994]',-0.007,79.595
[11:28:07.790 14/08/1994]',-0.007,79.595
[11:28:07.792 14/08/1994]',-0.007,77.414
[11:28:07.794 14/08/1994]',-0.007,77.414
[11:28:07.796 14/08/1994]',0.001,77.414
[11:28:07.798 14/08/1994]',0.001,77.414
[11:28:07.800 14/08/1994]',-0.007,75.234
[11:28:07.802 14/08/1994]',0.001,75.234
[11:28:07.804 14/08/1994]',0.008,75.234
[11:28:07.806 14/08/1994]',0.008,75.234
[11:28:07.808 14/08/1994]',0.008,72.975
[11:28:07.810 14/08/1994]',0.008,72.975
[11:28:07.812 14/08/1994]',0.008,72.975
[11:28:07.814 14/08/1994]',0.008,72.975
[11:28:07.816 14/08/1994]',0.001,70.794
[11:28:07.818 14/08/1994]',0.001,70.794
[11:28:07.820 14/08/1994]',-0.007,70.794
[11:28:07.822 14/08/1994]',-0.007,70.794
[11:28:07.824 14/08/1994]',-0.007,68.614
[11:28:07.826 14/08/1994]',-0.007,68.614
[11:28:07.828 14/08/1994]',-0.007,68.614
[11:28:07.830 14/08/1994]',0.001,68.614
[11:28:07.832 14/08/1994]',0.001,66.745
[11:28:07.834 14/08/1994]',0.001,66.745
[11:28:07.836 14/08/1994]',-0.007,66.745
[11:28:07.838 14/08/1994]',-0.007,66.745
[11:28:07.840 14/08/1994]',-0.007,65.187
[11:28:07.842 14/08/1994]',-0.014,65.187
[11:28:07.844 14/08/1994]',-0.022,65.187
[11:28:07.846 14/08/1994]',-0.029,65.187
[11:28:07.848 14/08/1994]',-0.044,64.252
[11:28:07.850 14/08/1994]',-0.044,64.252
[11:28:07.852 14/08/1994]',-0.051,64.252
[11:28:07.854 14/08/1994]',-0.044,64.252
[11:28:07.856 14/08/1994]',-0.036,63.785
[11:28:07.858 14/08/1994]',-0.036,63.785
[11:28:07.860 14/08/1994]',-0.022,63.785
[11:28:07.862 14/08/1994]',-0.007,63.785
[11:28:07.864 14/08/1994]',0.008,63.785
[11:28:07.866 14/08/1994]',0.03,63.785
[11:28:07.868 14/08/1994]',0.037,63.785
[11:28:07.870 14/08/1994]',0.045,63.785
[11:28:07.872 14/08/1994]',0.037,64.019
[11:28:07.874 14/08/1994]',0.03,64.019
[11:28:07.876 14/08/1994]',0.03,64.019
[11:28:07.878 14/08/1994]',0.023,64.019
[11:28:07.880 14/08/1994]',0.015,64.33
[11:28:07.882 14/08/1994]',0.008,64.33
[11:28:07.884 14/08/1994]',0.008,64.33
[11:28:07.886 14/08/1994]',0.008,64.33
[11:28:07.888 14/08/1994]',0.001,64.564
[11:28:07.890 14/08/1994]',0.001,64.564
[11:28:07.892 14/08/1994]',-0.007,64.564
[11:28:07.894 14/08/1994]',0.001,64.564
[11:28:07.896 14/08/1994]',-0.007,64.564
[11:28:07.898 14/08/1994]',0.001,64.564
[11:28:07.900 14/08/1994]',0.001,64.564
[11:28:07.902 14/08/1994]',-0.007,64.564
[11:28:07.904 14/08/1994]',-0.007,64.486
[11:28:07.906 14/08/1994]',-0.014,64.486
[11:28:07.908 14/08/1994]',-0.014,64.486
[11:28:07.910 14/08/1994]',-0.022,64.486
[11:28:07.912 14/08/1994]',-0.022,64.252
[11:28:07.914 14/08/1994]',-0.022,64.252
[11:28:07.916 14/08/1994]',-0.022,64.252
[11:28:07.918 14/08/1994]',-0.022,64.252
[11:28:07.920 14/08/1994]',-0.029,64.019
[11:28:07.922 14/08/1994]',-0.022,64.019
[11:28:07.924 14/08/1994]',-0.014,64.019
[11:28:07.926 14/08/1994]',-0.014,64.019
[11:28:07.928 14/08/1994]',-0.022,63.863
[11:28:07.930 14/08/1994]',-0.036,63.863
[11:28:07.932 14/08/1994]',-0.074,63.863
[11:28:07.934 14/08/1994]',-0.103,63.863
[11:28:07.936 14/08/1994]',-0.14,63.707
[11:28:07.938 14/08/1994]',-0.199,63.707
[11:28:07.940 14/08/1994]',-0.251,63.707
[11:28:07.942 14/08/1994]',-0.34,63.707
[11:28:07.944 14/08/1994]',-0.429,63.551
[11:28:07.946 14/08/1994]',-0.503,63.551
[11:28:07.948 14/08/1994]',-0.599,63.551
[11:28:07.950 14/08/1994]',-0.688,63.551
[11:28:07.952 14/08/1994]',-,63.396
[11:28:07.954 14/08/1994]',-,63.396
[11:28:07.956 14/08/1994]',-,63.396
[11:28:07.958 14/08/1994]',-,63.396
[11:28:07.960 14/08/1994]',-,63.24
[11:28:07.962 14/08/1994]',-,63.24
[11:28:07.964 14/08/1994]',-,63.24
[11:28:07.966 14/08/1994]',-,63.24
[11:28:07.968 14/08/1994]',-,62.928
[11:28:07.970 14/08/1994]',-,62.928
[11:28:07.972 14/08/1994]',-,62.928
[11:28:07.974 14/08/1994]',-,62.928
[11:28:07.976 14/08/1994]',-0.688,62.695
[11:28:07.978 14/08/1994]',-0.584,62.695
[11:28:07.980 14/08/1994]',-0.503,62.695
[11:28:07.982 14/08/1994]',-0.443,62.695
[11:28:07.984 14/08/1994]',-0.377,62.227
[11:28:07.986 14/08/1994]',-0.31,62.227
[11:28:07.988 14/08/1994]',-0.244,62.227
[11:28:07.990 14/08/1994]',-0.207,62.227
[11:28:07.992 14/08/1994]',-0.155,61.838
[11:28:07.994 14/08/1994]',-0.118,61.838
[11:28:07.996 14/08/1994]',-0.103,61.838
[11:28:07.998 14/08/1994]',-0.081,61.838
[11:28:08.000 14/08/1994]',-0.066,61.449
[11:28:08.002 14/08/1994]',-0.051,61.449
[11:28:08.004 14/08/1994]',-0.029,61.449
[11:28:08.006 14/08/1994]',-0.014,61.449
[11:28:08.008 14/08/1994]',-0.007,61.059
[11:28:08.010 14/08/1994]',0.001,61.059
[11:28:08.012 14/08/1994]',0.008,61.059
[11:28:08.014 14/08/1994]',0.015,61.059
[11:28:08.016 14/08/1994]',0.023,60.748
[11:28:08.018 14/08/1994]',0.03,60.748
[11:28:08.020 14/08/1994]',0.037,60.748
[11:28:08.022 14/08/1994]',0.052,60.748
[11:28:08.024 14/08/1994]',0.052,60.358
[11:28:08.026 14/08/1994]',0.052,60.358
[11:28:08.028 14/08/1994]',0.075,60.358
[11:28:08.030 14/08/1994]',0.082,60.358
[11:28:08.032 14/08/1994]',0.097,59.969
[11:28:08.034 14/08/1994]',0.097,59.969
[11:28:08.036 14/08/1994]',0.097,59.969
[11:28:08.038 14/08/1994]',0.097,59.969
[11:28:08.040 14/08/1994]',0.097,59.579
[11:28:08.042 14/08/1994]',0.104,59.579
[11:28:08.044 14/08/1994]',0.111,59.579
[11:28:08.046 14/08/1994]',0.119,59.579
[11:28:08.048 14/08/1994]',0.134,59.19
[11:28:08.050 14/08/1994]',0.141,59.19
[11:28:08.052 14/08/1994]',0.141,59.19
[11:28:08.054 14/08/1994]',0.141,59.19
[11:28:08.056 14/08/1994]',0.141,58.801
[11:28:08.058 14/08/1994]',0.141,58.801
[11:28:08.060 14/08/1994]',0.134,58.801
[11:28:08.062 14/08/1994]',0.134,58.801
[11:28:08.064 14/08/1994]',0.134,58.411
[11:28:08.066 14/08/1994]',0.134,58.411
[11:28:08.068 14/08/1994]',0.134,58.411
[11:28:08.070 14/08/1994]',0.134,58.411
[11:28:08.072 14/08/1994]',0.119,58.022
[11:28:08.074 14/08/1994]',0.119,58.022
[11:28:08.076 14/08/1994]',0.134,58.022
[11:28:08.078 14/08/1994]',0.119,58.022
[11:28:08.080 14/08/1994]',0.119,57.632
[11:28:08.082 14/08/1994]',0.134,57.632
[11:28:08.084 14/08/1994]',0.119,57.632
[11:28:08.086 14/08/1994]',0.119,57.632
[11:28:08.088 14/08/1994]',0.119,57.243
[11:28:08.090 14/08/1994]',0.111,57.243
[11:28:08.092 14/08/1994]',0.111,57.243
[11:28:08.094 14/08/1994]',0.111,57.243
[11:28:08.096 14/08/1994]',0.111,56.931
[11:28:08.098 14/08/1994]',0.111,56.931
[11:28:08.100 14/08/1994]',0.119,56.931
[11:28:08.102 14/08/1994]',0.134,56.931
[11:28:08.104 14/08/1994]',0.141,56.698
[11:28:08.106 14/08/1994]',0.134,56.698
[11:28:08.108 14/08/1994]',0.141,56.698
[11:28:08.110 14/08/1994]',0.148,56.698
[11:28:08.112 14/08/1994]',0.156,56.776
[11:28:08.114 14/08/1994]',0.148,56.776
[11:28:08.116 14/08/1994]',0.156,56.776
[11:28:08.118 14/08/1994]',0.156,56.776
[11:28:08.120 14/08/1994]',0.156,57.399
[11:28:08.122 14/08/1994]',0.156,57.399
[11:28:08.124 14/08/1994]',0.156,57.399
[11:28:08.126 14/08/1994]',0.156,57.399
[11:28:08.128 14/08/1994]',0.163,59.268
[11:28:08.130 14/08/1994]',0.163,59.268
[11:28:08.132 14/08/1994]',0.171,59.268
[11:28:08.134 14/08/1994]',0.171,59.268
[11:28:08.136 14/08/1994]',0.178,63.24
[11:28:08.138 14/08/1994]',0.186,63.24
[11:28:08.140 14/08/1994]',0.178,63.24
[11:28:08.142 14/08/1994]',0.186,63.24
[11:28:08.144 14/08/1994]',0.2,69.237
[11:28:08.146 14/08/1994]',0.2,69.237
[11:28:08.148 14/08/1994]',0.2,69.237
[11:28:08.150 14/08/1994]',0.2,69.237
[11:28:08.152 14/08/1994]',0.208,76.168
[11:28:08.154 14/08/1994]',0.208,76.168
[11:28:08.156 14/08/1994]',0.2,76.168
[11:28:08.158 14/08/1994]',0.2,76.168
[11:28:08.160 14/08/1994]',0.208,82.399
[11:28:08.162 14/08/1994]',0.208,82.399
[11:28:08.164 14/08/1994]',0.208,82.399
[11:28:08.166 14/08/1994]',0.208,82.399
[11:28:08.168 14/08/1994]',0.222,86.76
[11:28:08.170 14/08/1994]',0.23,86.76
[11:28:08.172 14/08/1994]',0.245,86.76
[11:28:08.174 14/08/1994]',0.245,86.76
[11:28:08.176 14/08/1994]',0.267,89.33
[11:28:08.178 14/08/1994]',0.274,89.33
[11:28:08.180 14/08/1994]',0.282,89.33
[11:28:08.182 14/08/1994]',0.289,89.33
[11:28:08.184 14/08/1994]',0.289,90.576
[11:28:08.186 14/08/1994]',0.289,90.576
[11:28:08.188 14/08/1994]',0.282,90.576
[11:28:08.190 14/08/1994]',0.282,90.576
[11:28:08.192 14/08/1994]',0.289,91.121
[11:28:08.194 14/08/1994]',0.289,91.121
[11:28:08.196 14/08/1994]',0.297,91.121
[11:28:08.198 14/08/1994]',0.289,91.121
[11:28:08.200 14/08/1994]',0.289,91.355
[11:28:08.202 14/08/1994]',0.282,91.355
[11:28:08.204 14/08/1994]',0.274,91.355
[11:28:08.206 14/08/1994]',0.252,91.355
[11:28:08.208 14/08/1994]',0.245,91.355
[11:28:08.210 14/08/1994]',0.237,91.355
[11:28:08.212 14/08/1994]',0.215,91.355
[11:28:08.214 14/08/1994]',0.208,91.355
[11:28:08.216 14/08/1994]',0.186,91.277
[11:28:08.218 14/08/1994]',0.171,91.277
[11:28:08.220 14/08/1994]',0.156,91.277
[11:28:08.222 14/08/1994]',0.134,91.277
[11:28:08.224 14/08/1994]',0.111,91.044
[11:28:08.226 14/08/1994]',0.097,91.044
[11:28:08.228 14/08/1994]',0.082,91.044
[11:28:08.230 14/08/1994]',0.075,91.044
[11:28:08.232 14/08/1994]',0.052,90.498
[11:28:08.234 14/08/1994]',0.052,90.498
[11:28:08.236 14/08/1994]',0.037,90.498
[11:28:08.238 14/08/1994]',0.03,90.498
[11:28:08.240 14/08/1994]',0.015,89.486
[11:28:08.242 14/08/1994]',0.015,89.486
[11:28:08.244 14/08/1994]',0.008,89.486
[11:28:08.246 14/08/1994]',0.001,89.486
[11:28:08.248 14/08/1994]',-0.007,88.24
[11:28:08.250 14/08/1994]',-0.007,88.24
[11:28:08.252 14/08/1994]',-0.014,88.24
[11:28:08.254 14/08/1994]',-0.022,88.24
[11:28:08.256 14/08/1994]',-0.022,86.604
[11:28:08.258 14/08/1994]',-0.029,86.604
[11:28:08.260 14/08/1994]',-0.022,86.604
[11:28:08.262 14/08/1994]',-0.029,86.604
[11:28:08.264 14/08/1994]',-0.036,84.657
[11:28:08.266 14/08/1994]',-0.036,84.657
[11:28:08.268 14/08/1994]',-0.051,84.657
[11:28:08.270 14/08/1994]',-0.051,84.657
[11:28:08.272 14/08/1994]',-0.074,82.632
[11:28:08.274 14/08/1994]',-0.081,82.632
[11:28:08.276 14/08/1994]',-0.088,82.632
[11:28:08.278 14/08/1994]',-0.096,82.632
[11:28:08.280 14/08/1994]',-0.088,80.374
[11:28:08.282 14/08/1994]',-0.074,80.374
[11:28:08.284 14/08/1994]',-0.081,80.374
[11:28:08.286 14/08/1994]',-0.081,80.374
[11:28:08.288 14/08/1994]',-0.081,77.96
[11:28:08.290 14/08/1994]',-0.081,77.96
[11:28:08.292 14/08/1994]',-0.081,77.96
[11:28:08.294 14/08/1994]',-0.081,77.96
[11:28:08.296 14/08/1994]',-0.081,75.467
[11:28:08.298 14/08/1994]',-0.081,75.467
[11:28:08.300 14/08/1994]',-0.088,75.467
[11:28:08.302 14/08/1994]',-0.081,75.467
[11:28:08.304 14/08/1994]',-0.088,72.975
[11:28:08.306 14/08/1994]',-0.088,72.975
[11:28:08.308 14/08/1994]',-0.088,72.975
[11:28:08.310 14/08/1994]',-0.088,72.975
[11:28:08.312 14/08/1994]',-0.088,70.483
[11:28:08.314 14/08/1994]',-0.096,70.483
[11:28:08.316 14/08/1994]',-0.096,70.483
[11:28:08.318 14/08/1994]',-0.096,70.483
[11:28:08.320 14/08/1994]',-0.096,67.991
[11:28:08.322 14/08/1994]',-0.103,67.991
[11:28:08.324 14/08/1994]',-0.103,67.991
[11:28:08.326 14/08/1994]',-0.103,67.991
[11:28:08.328 14/08/1994]',-0.103,65.732
[11:28:08.330 14/08/1994]',-0.096,65.732
[11:28:08.332 14/08/1994]',-0.11,65.732
[11:28:08.334 14/08/1994]',-0.103,65.732
[11:28:08.336 14/08/1994]',-0.103,63.785
[11:28:08.338 14/08/1994]',-0.096,63.785
[11:28:08.340 14/08/1994]',-0.088,63.785
[11:28:08.342 14/08/1994]',-0.081,63.785
[11:28:08.344 14/08/1994]',-0.081,62.227
[11:28:08.346 14/08/1994]',-0.081,62.227
[11:28:08.348 14/08/1994]',-0.088,62.227
[11:28:08.350 14/08/1994]',-0.088,62.227
[11:28:08.352 14/08/1994]',-0.096,61.371
[11:28:08.354 14/08/1994]',-0.096,61.371
[11:28:08.356 14/08/1994]',-0.103,61.371
[11:28:08.358 14/08/1994]',-0.103,61.371
[11:28:08.360 14/08/1994]',-0.11,60.981
[11:28:08.362 14/08/1994]',-0.103,60.981
[11:28:08.364 14/08/1994]',-0.11,60.981
[11:28:08.366 14/08/1994]',-0.11,60.981
[11:28:08.368 14/08/1994]',-0.11,60.981
[11:28:08.370 14/08/1994]',-0.11,60.981
[11:28:08.372 14/08/1994]',-0.103,60.981
[11:28:08.374 14/08/1994]',-0.103,60.981
[11:28:08.376 14/08/1994]',-0.096,60.981
[11:28:08.378 14/08/1994]',-0.096,60.981
[11:28:08.380 14/08/1994]',-0.103,60.981
[11:28:08.382 14/08/1994]',-0.103,60.981
[11:28:08.384 14/08/1994]',-0.103,60.903
[11:28:08.386 14/08/1994]',-0.103,60.903
[11:28:08.388 14/08/1994]',-0.103,60.903
[11:28:08.390 14/08/1994]',-0.103,60.903
[11:28:08.392 14/08/1994]',-0.103,60.826
[11:28:08.394 14/08/1994]',-0.11,60.826
[11:28:08.396 14/08/1994]',-0.11,60.826
[11:28:08.398 14/08/1994]',-0.103,60.826
[11:28:08.400 14/08/1994]',-0.103,60.748
[11:28:08.402 14/08/1994]',-0.103,60.748
[11:28:08.404 14/08/1994]',-0.103,60.748
[11:28:08.406 14/08/1994]',-0.096,60.748
[11:28:08.408 14/08/1994]',-0.096,60.748
[11:28:08.410 14/08/1994]',-0.096,60.748
[11:28:08.412 14/08/1994]',-0.088,60.748
[11:28:08.414 14/08/1994]',-0.081,60.748
[11:28:08.416 14/08/1994]',-0.081,60.748
[11:28:08.418 14/08/1994]',-0.074,60.748
[11:28:08.420 14/08/1994]',-0.081,60.748
[11:28:08.422 14/08/1994]',-0.103,60.748
[11:28:08.424 14/08/1994]',-0.133,60.592
[11:28:08.426 14/08/1994]',-0.155,60.592
[11:28:08.428 14/08/1994]',-0.199,60.592
[11:28:08.430 14/08/1994]',-0.236,60.592
[11:28:08.432 14/08/1994]',-0.303,60.514
[11:28:08.434 14/08/1994]',-0.377,60.514
[11:28:08.436 14/08/1994]',-0.451,60.514
[11:28:08.438 14/08/1994]',-0.518,60.514
[11:28:08.440 14/08/1994]',-0.584,60.436
[11:28:08.442 14/08/1994]',-0.665,60.436
[11:28:08.444 14/08/1994]',-,60.436
[11:28:08.446 14/08/1994]',-,60.436
[11:28:08.448 14/08/1994]',-,60.28
[11:28:08.450 14/08/1994]',-,60.28
[11:28:08.452 14/08/1994]',-,60.28
[11:28:08.454 14/08/1994]',-,60.28
[11:28:08.456 14/08/1994]',-,60.047
[11:28:08.458 14/08/1994]',-,60.047
[11:28:08.460 14/08/1994]',-,60.047
[11:28:08.462 14/08/1994]',-,60.047
[11:28:08.464 14/08/1994]',-,59.657
[11:28:08.466 14/08/1994]',-,59.657
[11:28:08.468 14/08/1994]',-0.673,59.657
[11:28:08.470 14/08/1994]',-0.562,59.657
[11:28:08.472 14/08/1994]',-0.473,59.346
[11:28:08.474 14/08/1994]',-0.399,59.346
[11:28:08.476 14/08/1994]',-0.34,59.346
[11:28:08.478 14/08/1994]',-0.273,59.346
[11:28:08.480 14/08/1994]',-0.214,58.801
[11:28:08.482 14/08/1994]',-0.177,58.801
[11:28:08.484 14/08/1994]',-0.14,58.801
[11:28:08.486 14/08/1994]',-0.103,58.801
[11:28:08.488 14/08/1994]',-0.074,58.411
[11:28:08.490 14/08/1994]',-0.044,58.411
[11:28:08.492 14/08/1994]',-0.014,58.411
[11:28:08.494 14/08/1994]',0.008,58.411
[11:28:08.496 14/08/1994]',0.03,57.944
[11:28:08.498 14/08/1994]',0.045,57.944
[11:28:08.500 14/08/1994]',0.067,57.944
[11:28:08.502 14/08/1994]',0.082,57.944
[11:28:08.504 14/08/1994]',0.089,57.477
[11:28:08.506 14/08/1994]',0.104,57.477
[11:28:08.508 14/08/1994]',0.111,57.477
[11:28:08.510 14/08/1994]',0.134,57.477
[11:28:08.512 14/08/1994]',0.141,57.009
[11:28:08.514 14/08/1994]',0.156,57.009
[11:28:08.516 14/08/1994]',0.163,57.009
[11:28:08.518 14/08/1994]',0.171,57.009
[11:28:08.520 14/08/1994]',0.178,56.542
[11:28:08.522 14/08/1994]',0.186,56.542
[11:28:08.524 14/08/1994]',0.2,56.542
[11:28:08.526 14/08/1994]',0.2,56.542
[11:28:08.528 14/08/1994]',0.215,56.075
[11:28:08.530 14/08/1994]',0.215,56.075
[11:28:08.532 14/08/1994]',0.222,56.075
[11:28:08.534 14/08/1994]',0.222,56.075
[11:28:08.536 14/08/1994]',0.23,55.607
[11:28:08.538 14/08/1994]',0.23,55.607
[11:28:08.540 14/08/1994]',0.222,55.607
[11:28:08.542 14/08/1994]',0.215,55.607
[11:28:08.544 14/08/1994]',0.222,55.062
[11:28:08.546 14/08/1994]',0.215,55.062
[11:28:08.548 14/08/1994]',0.23,55.062
[11:28:08.550 14/08/1994]',0.23,55.062
[11:28:08.552 14/08/1994]',0.237,54.595
[11:28:08.554 14/08/1994]',0.245,54.595
[11:28:08.556 14/08/1994]',0.252,54.595
[11:28:08.558 14/08/1994]',0.245,54.595
[11:28:08.560 14/08/1994]',0.245,54.05
[11:28:08.562 14/08/1994]',0.237,54.05
[11:28:08.564 14/08/1994]',0.23,54.05
[11:28:08.566 14/08/1994]',0.237,54.05
[11:28:08.568 14/08/1994]',0.237,53.583
[11:28:08.570 14/08/1994]',0.23,53.583
[11:28:08.572 14/08/1994]',0.222,53.583
[11:28:08.574 14/08/1994]',0.222,53.583
[11:28:08.576 14/08/1994]',0.222,53.037
[11:28:08.578 14/08/1994]',0.23,53.037
[11:28:08.580 14/08/1994]',0.237,53.037
[11:28:08.582 14/08/1994]',0.245,53.037
[11:28:08.584 14/08/1994]',0.252,52.492
[11:28:08.586 14/08/1994]',0.245,52.492
[11:28:08.588 14/08/1994]',0.245,52.492
[11:28:08.590 14/08/1994]',0.245,52.492
[11:28:08.592 14/08/1994]',0.237,52.025
[11:28:08.594 14/08/1994]',0.237,52.025
[11:28:08.596 14/08/1994]',0.245,52.025
[11:28:08.598 14/08/1994]',0.245,52.025
[11:28:08.600 14/08/1994]',0.245,51.636
[11:28:08.602 14/08/1994]',0.245,51.636
[11:28:08.604 14/08/1994]',0.245,51.636
[11:28:08.606 14/08/1994]',0.245,51.636
[11:28:08.608 14/08/1994]',0.237,51.558
[11:28:08.610 14/08/1994]',0.237,51.558
[11:28:08.612 14/08/1994]',0.237,51.558
[11:28:08.614 14/08/1994]',0.245,51.558
[11:28:08.616 14/08/1994]',0.252,52.181
[11:28:08.618 14/08/1994]',0.267,52.181
[11:28:08.620 14/08/1994]',0.274,52.181
[11:28:08.622 14/08/1994]',0.274,52.181
[11:28:08.624 14/08/1994]',0.274,54.206
[11:28:08.626 14/08/1994]',0.274,54.206
[11:28:08.628 14/08/1994]',0.267,54.206
[11:28:08.630 14/08/1994]',0.252,54.206
[11:28:08.632 14/08/1994]',0.267,58.333
[11:28:08.634 14/08/1994]',0.267,58.333
[11:28:08.636 14/08/1994]',0.267,58.333
[11:28:08.638 14/08/1994]',0.267,58.333
[11:28:08.640 14/08/1994]',0.282,64.33
[11:28:08.642 14/08/1994]',0.289,64.33
[11:28:08.644 14/08/1994]',0.289,64.33
[11:28:08.646 14/08/1994]',0.297,64.33
[11:28:08.648 14/08/1994]',0.297,71.028
[11:28:08.650 14/08/1994]',0.311,71.028
[11:28:08.652 14/08/1994]',0.319,71.028
[11:28:08.654 14/08/1994]',0.319,71.028
[11:28:08.656 14/08/1994]',0.319,76.869
[11:28:08.658 14/08/1994]',0.319,76.869
[11:28:08.660 14/08/1994]',0.333,76.869
[11:28:08.662 14/08/1994]',0.333,76.869
[11:28:08.664 14/08/1994]',0.333,80.997
[11:28:08.666 14/08/1994]',0.333,80.997
[11:28:08.668 14/08/1994]',0.348,80.997
[11:28:08.670 14/08/1994]',0.341,80.997
[11:28:08.672 14/08/1994]',0.348,83.567
[11:28:08.674 14/08/1994]',0.341,83.567
[11:28:08.676 14/08/1994]',0.341,83.567
[11:28:08.678 14/08/1994]',0.348,83.567
[11:28:08.680 14/08/1994]',0.333,85.047
[11:28:08.682 14/08/1994]',0.341,85.047
[11:28:08.684 14/08/1994]',0.341,85.047
[11:28:08.686 14/08/1994]',0.341,85.047
[11:28:08.688 14/08/1994]',0.341,85.748
[11:28:08.690 14/08/1994]',0.319,85.748
[11:28:08.692 14/08/1994]',0.319,85.748
